date,adjClose,adjHigh,adjLow,adjVolume
1993-04-23,3.5095296939546,3.55452366438991,3.41954175308397,64400
1993-04-30,3.23956587134271,3.5095296939546,3.23956587134271,100400
1993-05-07,3.08298685422781,3.21796876553375,2.99299891335718,86800
1993-05-14,3.32955381221334,3.37454778264865,2.87961410786018,233200
1993-05-21,3.26296273596907,3.30795670640438,3.12798082466312,136000
1993-05-28,3.10458396003676,3.23956587134271,3.03799288379249,275600
1993-06-04,3.21796876553375,3.23956587134271,3.12798082466312,68000
1993-06-11,3.19457190090739,3.26296273596907,3.17297479509844,164000
1993-06-18,3.23956587134271,3.28455984177802,3.19457190090739,259200
1993-06-25,3.26296273596907,3.32955381221334,3.26296273596907,690800
1993-07-02,3.37454778264865,3.37454778264865,3.26296273596907,130400
1993-07-09,3.3529506768397,3.41954175308397,3.3529506768397,155600
1993-07-16,3.28455984177802,3.37454778264865,3.21796876553375,716800
1993-07-23,3.32955381221334,3.32955381221334,3.23956587134271,377200
1993-07-30,3.3529506768397,3.39794464727502,3.28455984177802,60400
1993-08-06,3.33848981278288,3.37454778264865,3.31683474372699,67200
1993-08-13,3.42871926718242,3.42871926718242,3.31683474372699,54400
1993-08-20,3.40706419812653,3.4521789253263,3.36194947092676,84800
1993-08-27,3.42871926718242,3.4521789253263,3.33848981278288,82800
1993-09-03,3.42871926718242,3.4521789253263,3.33848981278288,162400
1993-09-10,3.4521789253263,3.49729365252607,3.42871926718242,148000
1993-09-17,3.38360453998265,3.47383399438219,3.38360453998265,344400
1993-09-24,3.51894872158196,3.54240837972584,3.29337508558311,344800
1993-10-01,3.78963708478057,3.83475181198034,3.51894872158196,583200
1993-10-08,3.87986653918011,3.90332619732399,3.76798201572468,346400
1993-10-15,3.90332619732399,3.97009599357965,3.83475181198034,138800
1993-10-22,3.85821147012422,3.92498126637988,3.83475181198034,171200
1993-10-29,3.81309674292445,3.97009599357965,3.78963708478057,202000
1993-11-05,3.61787499086338,3.87986653918011,3.57265155347759,162000
1993-11-12,3.84399217779234,3.86750836523295,3.61787499086338,339200
1993-11-19,3.88921561517813,3.93443905256392,3.82228492784716,183200
1993-11-26,3.84399217779234,3.84399217779234,3.73183805307558,117200
1993-12-03,3.79876874040655,3.91273180261874,3.79876874040655,45600
1993-12-10,3.82228492784716,3.82228492784716,3.77706149046137,182800
1993-12-17,3.64139117830399,3.82228492784716,3.64139117830399,559600
1993-12-24,3.75354530302076,3.77706149046137,3.64139117830399,211600
1993-12-31,3.75354530302076,3.75354530302076,3.68661461568978,23600
1994-01-07,3.68661461568978,3.75354530302076,3.68661461568978,53200
1994-01-14,3.68661461568978,3.70832186563496,3.64139117830399,82000
1994-01-21,3.66309842824917,3.79876874040655,3.64139117830399,180000
1994-01-28,3.66309842824917,3.75354530302076,3.66309842824917,92400
1994-02-04,3.80781342788371,3.8313856062468,3.66309842824917,104800
1994-02-11,3.92204783072022,3.94380676459384,3.80781342788371,53200
1994-02-18,3.92204783072022,3.98913787683055,3.87671671848351,159600
1994-02-25,3.87671671848351,3.94380676459384,3.85314454012042,14800
1994-03-04,4.03446898906726,4.05804116743035,3.85314454012042,169600
1994-03-11,4.05804116743035,4.12513121354068,4.03446898906726,86000
1994-03-18,4.12513121354068,4.12513121354068,4.03446898906726,538000
1994-03-25,4.07980010130397,4.10337227966706,4.07980010130397,324800
1994-04-01,3.87671671848351,4.10337227966706,3.85314454012042,290400
1994-04-08,4.07980010130397,4.10337227966706,3.85314454012042,614800
1994-04-15,3.96737894295693,4.07980010130397,3.94380676459384,86000
1994-04-22,3.92204783072022,3.98913787683055,3.92204783072022,98800
1994-04-29,4.05804116743035,4.12513121354068,3.96737894295693,72000
1994-05-06,4.13631548253356,4.14870339190377,3.99995343365883,428400
1994-05-13,4.13631548253356,4.4544935965746,4.06904353842203,144000
1994-05-20,4.25085960358834,4.29631361987991,4.15995157100518,52400
1994-05-27,4.43267566875465,4.4544935965746,4.22722351511672,428800
1994-06-03,4.65994575021254,4.65994575021254,4.36358556399145,306000
1994-06-10,4.47812968504622,4.65994575021254,4.43267566875465,126400
1994-06-17,4.47812968504622,4.5235837013378,4.38722165246307,118800
1994-06-24,4.22722351511672,4.47812968504622,4.22722351511672,110800
1994-07-01,4.15995157100518,4.22722351511672,4.1144975547136,127200
1994-07-08,4.27267753140829,4.34176763617149,4.15995157100518,73600
1994-07-15,4.25085960358834,4.31813154769987,4.22722351511672,90000
1994-07-22,4.43267566875465,4.49994761286618,4.25085960358834,81200
1994-07-29,4.43267566875465,4.49994761286618,4.43267566875465,88800
1994-08-05,4.37438206435596,4.4544935965746,4.37438206435596,82000
1994-08-12,4.30694367419714,4.39807663387122,4.30694367419714,57600
1994-08-19,4.07911127501194,4.28324910468188,4.07911127501194,119600
1994-08-26,4.10098318533372,4.10098318533372,4.03354479517489,23200
1994-09-02,4.32881558451892,4.32881558451892,4.05541670549667,338400
1994-09-09,4.41994854419301,4.44364311370827,4.37438206435596,71200
1994-09-16,4.60221446354117,4.60221446354117,4.1921161450078,319600
1994-09-23,4.55664798370413,4.67147551289347,4.55664798370413,187600
1994-09-30,4.92117982240046,4.94487439191572,4.53477607338235,3610000
1994-10-07,4.94487439191572,4.9667463022375,4.85374143224164,1444800
1994-10-14,4.99044087175276,5.05787926191158,4.94487439191572,558000
1994-10-21,4.92117982240046,4.9667463022375,4.92117982240046,496800
1994-10-28,5.01231278207454,5.01231278207454,4.92117982240046,410400
1994-11-04,5.04714485402605,5.08157383142684,4.95581034707661,925200
1994-11-11,5.04714485402605,5.20606689611808,5.00147760055133,556000
1994-11-18,5.04714485402605,5.20606689611808,5.0233978822192,745600
1994-11-25,4.93206337526976,5.06906513569392,4.88639612179504,384800
1994-12-02,4.68180682622829,4.88639612179504,4.61239260094672,540800
1994-12-09,4.566725347472,4.84072886832032,4.54480506580413,550400
1994-12-16,4.86447584012717,4.88639612179504,4.54480506580413,340000
1994-12-23,5.2517341495928,5.29740140306752,4.86447584012717,436800
1994-12-30,5.22981386792493,5.27548112139965,5.18414661445021,240000
1995-01-06,5.00147760055133,5.22981386792493,4.93206337526976,227200
1995-01-13,4.72747407970301,4.95581034707661,4.63613957275357,401200
1995-01-20,4.81880858665245,4.88639612179504,4.72747407970301,500000
1995-01-27,4.88639612179504,4.88639612179504,4.7950616148456,111200
1995-02-03,4.66940713786704,4.88639612179504,4.51009795316334,734800
1995-02-10,4.85252114327359,4.98985664732851,4.78476896127317,273600
1995-02-17,5.05943996938299,5.08141365003178,4.85252114327359,338800
1995-02-24,5.21874915408669,5.24255397478954,5.01366146803136,412800
1995-03-03,5.08141365003178,5.31030615678997,5.05943996938299,496400
1995-03-10,5.01366146803136,5.01366146803136,4.83054746262481,366800
1995-03-17,5.10521847073463,5.12719215138342,4.98985664732851,181200
1995-03-24,5.31030615678997,5.37988947884446,5.10521847073463,530400
1995-03-31,5.24255397478954,5.35608465814161,5.24255397478954,269200
1995-04-07,5.10521847073463,5.21874915408669,5.08141365003178,150000
1995-04-14,5.40186315949324,5.4256679801961,5.10521847073463,320800
1995-04-21,5.4256679801961,5.51722498289937,5.31030615678997,820800
1995-04-28,5.40186315949324,5.53919866354816,5.26452765543833,420800
1995-05-05,5.64183256264406,5.64183256264406,5.40186315949324,503600
1995-05-12,5.57394709766265,5.61981565508252,5.45835833296458,516800
1995-05-19,5.55009544780432,5.57394709766265,5.50422689038445,166000
1995-05-26,5.64183256264406,5.87117534974341,5.55009544780432,346000
1995-06-02,5.64183256264406,5.66568421250239,5.59596400522419,224000
1995-06-09,5.82530679232354,5.84915844218187,5.61981565508252,592000
1995-06-16,5.803289884762,5.87117534974341,5.75742132734213,318000
1995-06-23,5.75742132734213,5.82530679232354,5.64183256264406,437200
1995-06-30,5.89502699960174,5.89502699960174,5.71155276992226,285200
1995-07-07,5.84915844218187,5.96291246458315,5.83631524610431,263600
1995-07-14,5.7335696774838,5.87117534974341,5.71155276992226,166800
1995-07-21,5.7335696774838,5.82530679232354,5.68770112006393,161200
1995-07-28,5.84915844218187,5.91704390716328,5.7335696774838,712800
1995-08-04,5.99960731051905,6.10051813684276,5.89502699960174,428400
1995-08-11,6.02167145018384,6.09154122578903,5.97570449254885,462400
1995-08-18,5.97570449254885,6.13750818342402,5.90767339524907,616800
1995-08-25,5.95364035288406,6.06763840781884,5.95364035288406,562000
1995-09-01,5.86170643761407,6.02167145018384,5.76977252234409,357200
1995-09-08,6.13750818342402,6.13750818342402,5.81573947997908,415600
1995-09-15,6.229442098694,6.229442098694,6.06763840781884,233200
1995-09-22,6.18347514105901,6.29747319599379,6.13750818342402,275200
1995-09-29,6.09154122578903,6.229442098694,6.09154122578903,190000
1995-10-06,5.81573947997908,6.06763840781884,5.81573947997908,275200
1995-10-13,6.06763840781884,6.06763840781884,5.7238055647091,475200
1995-10-20,6.13750818342402,6.275409056329,6.06763840781884,217600
1995-10-27,6.2515062383588,6.29747319599379,5.92973753491386,642800
1995-11-03,6.51811459264175,6.51811459264175,6.2515062383588,1029200
1995-11-10,6.42599878437943,6.54022238662471,6.42599878437943,486000
1995-11-17,6.47205668851059,6.49416448249355,6.40204867423123,1365200
1995-11-24,6.44810657836239,6.49416448249355,6.33388297611711,357600
1995-12-01,6.72445400314935,6.72445400314935,6.42599878437943,345200
1995-12-08,6.93263572982219,7.04685933206746,6.74840411329755,636800
1995-12-15,6.67839609901818,6.97869363395335,6.65628830503523,491200
1995-12-22,6.63233819488703,6.67839609901818,6.47205668851059,499600
1995-12-29,6.88657782569103,6.88657782569103,6.63233819488703,524000
1996-01-05,6.86262771554282,6.86262771554282,6.81656981141167,377200
1996-01-12,6.58628029075587,6.7705119072805,6.58628029075587,305200
1996-01-19,6.44810657836239,6.56325133869029,6.40204867423123,364800
1996-01-26,6.72445400314935,6.7705119072805,6.44810657836239,578400
1996-02-02,6.86262771554282,6.90868561967399,6.7705119072805,722400
1996-02-09,6.89850989338794,6.94465377227348,6.8523660145024,270800
1996-02-16,6.8523660145024,6.94465377227348,6.80622213561686,432000
1996-02-23,6.94465377227348,6.99079765115902,6.78315019617409,470800
1996-03-01,6.87543795394517,6.99172052873673,6.69086243840302,1140000
1996-03-08,6.8523660145024,6.96772571171625,6.82929407505963,806400
1996-03-15,7.10615734837286,7.17629604427888,6.85144313692469,764400
1996-03-22,6.92158183283071,7.03694153004455,6.87543795394517,776000
1996-03-29,7.42916450057163,7.47530837945717,6.94373089469577,958000
1996-04-05,7.89060328942701,7.95981910775532,7.65988389499932,1418000
1996-04-12,7.84445941054147,7.93674716831255,7.70602777388486,1722800
1996-04-19,7.31380480335778,7.63773483313426,7.24458898502948,1111600
1996-04-26,7.10615734837286,7.33687674280055,7.08308540893009,443200
1996-05-03,7.03694153004455,7.12830641023792,6.75915537915361,1989600
1996-05-10,7.11911803139491,7.14223205097736,7.0266619530651,1368400
1996-05-17,7.07288999223,7.11911803139491,7.04885141186426,479200
1996-05-24,7.21157410972471,7.28091616847206,6.9342058747353,1003200
1996-05-31,7.62762646220883,7.65166504257458,7.37337224680187,781200
1996-06-07,7.74319656012108,7.83657719923419,7.69696852095618,486000
1996-06-14,7.28091616847206,7.67385450137373,7.28091616847206,489600
1996-06-21,5.98653107185481,6.77240773765814,5.82473293477765,3796400
1996-06-28,5.61670675853559,5.91718901310746,5.59359273895314,1210400
1996-07-05,6.37946940475648,6.51815352225118,5.61670675853559,1512800
1996-07-12,6.12521518934951,6.28701332642667,6.10210116976706,535200
1996-07-19,6.10210116976706,6.14832920893197,5.82473293477765,659200
1996-07-26,5.91718901310746,6.07991171096791,5.91718901310746,553600
1996-08-02,6.3702237969235,6.41469307299277,5.87096097394255,504800
1996-08-09,6.39245843495813,6.43878059753029,6.29981410981381,1360800
1996-08-16,6.67039141039109,6.67039141039109,6.62406924781893,169600
1996-08-23,6.48510276010245,6.87884114196582,6.48510276010245,233600
1996-08-30,6.43878059753029,6.53142492267461,6.39245843495813,85200
1996-09-06,6.46194167881637,6.48510276010245,6.36929735367205,206400
1996-09-13,6.18400870338341,6.53142492267461,6.06820329695301,889200
1996-09-20,6.04504221566693,6.29981410981381,6.04504221566693,481200
1996-09-27,5.85975356537829,6.06820329695301,5.85975356537829,862800
1996-10-04,6.16084762209733,6.23033086595557,5.95147144727117,592400
1996-10-11,5.81343140280613,6.06820329695301,5.79027032152005,694400
1996-10-18,5.92923680923653,6.04504221566693,5.88291464666437,408400
1996-10-25,5.76710924023397,5.90700217120189,5.74394815894789,491600
1996-11-01,5.94220701475673,5.94220701475673,5.81343140280613,435200
1996-11-08,6.4064419377846,6.45286543008739,6.05733727566765,589600
1996-11-15,6.45286543008739,6.49928892239018,6.33587822948437,523600
1996-11-22,6.59213590699575,6.70819463775272,6.42872521408994,728400
1996-11-29,6.4064419377846,6.59213590699575,6.36001844548182,763200
1996-12-06,6.42872521408994,6.61441918330109,6.36001844548182,496400
1996-12-13,6.12790098396788,6.49928892239018,6.10561770766255,527200
1996-12-20,6.15018426027322,6.19846469226812,6.08147749166509,1206800
1996-12-27,6.31359495317903,6.31359495317903,6.12790098396788,300000
1997-01-03,6.45286543008739,6.56985263069041,6.24303124487879,666000
1997-01-10,6.6162761229932,6.68498289160133,6.49928892239018,577200
1997-01-17,6.49928892239018,6.6162761229932,6.4064419377846,779200
1997-01-24,6.31359495317903,6.47700564608484,6.24488818457091,805200
1997-01-31,6.22074796857346,6.29131167687369,6.08147749166509,900000
1997-02-07,6.53642771623241,6.67597570334241,6.46572340276334,765200
1997-02-14,6.65178738557667,6.81552369045241,6.51223939846667,788800
1997-02-21,7.14113566037574,7.23416765178241,6.48991172052907,1179200
1997-02-28,7.39604331683001,7.39604331683001,7.09461966467241,741600
1997-03-07,7.44255931253334,7.55977962170574,7.37371563889241,729200
1997-03-14,7.11694734261001,7.46674763029908,7.04810366896908,435600
1997-03-21,7.44255931253334,7.46674763029908,6.97739935550001,464800
1997-03-28,7.18765165607908,7.42023163459574,7.18765165607908,695600
1997-04-04,7.07043134690668,7.18765165607908,6.93088335979667,540400
1997-04-11,6.97739935550001,7.11694734261001,6.95507167756241,367600
1997-04-18,6.97739935550001,7.00158767326574,6.53642771623241,1259200
1997-04-25,7.37371563889241,7.51326362600241,6.97739935550001,1352400
1997-05-02,7.48907530823667,7.58210729964334,7.30301132542334,1034400
1997-05-09,7.64184775375862,7.75927126802369,7.40886459053427,538000
1997-05-16,7.64184775375862,7.85246453331343,7.59525112111375,436400
1997-05-23,8.08544769653778,8.08544769653778,7.64184775375862,525600
1997-05-30,8.27183422711726,8.27183422711726,8.08544769653778,295600
1997-06-06,8.48058714136627,8.50481739034161,8.29420061078679,873600
1997-06-13,8.20100734549705,8.52718377401114,7.96802418227271,387600
1997-06-20,8.15441071285218,8.22523759447239,8.08544769653778,556000
1997-06-27,8.27183422711726,8.27183422711726,7.99225443124804,469200
1997-07-04,8.48058714136627,8.55141402298647,8.27183422711726,419600
1997-07-11,8.50481739034161,8.50481739034161,8.29420061078679,438400
1997-07-18,8.52718377401114,8.73780055356595,8.365027492407,449600
1997-07-25,8.94655346781497,9.00433329229461,8.38739387607653,1130400
1997-08-01,9.66041387993437,9.70328278196765,8.94655346781497,862000
1997-08-08,10.1271005408008,10.384711577599,9.66041387993437,1016000
1997-08-15,10.1737692068874,10.4071125373206,10.1271005408008,706400
1997-08-22,10.0113622489059,10.1737692068874,9.80041987819429,631200
1997-08-29,10.5004498694939,10.5004498694939,9.94042587645421,477600
1997-09-05,10.4313802436857,11.038072902812,10.4071125373206,745600
1997-09-12,10.4537812034072,10.4780489097723,10.1046995810792,976400
1997-09-19,10.5471185355805,10.6404558677538,10.3137752051473,508400
1997-09-26,10.4537812034072,10.6647235741189,10.3137752051473,485200
1997-10-03,10.4537812034072,10.6404558677538,10.3380429115124,485600
1997-10-10,10.5937872016672,10.6647235741189,10.4313802436857,410800
1997-10-17,10.1046995810792,10.8271305321004,10.0804318747141,501600
1997-10-24,10.6404558677538,10.6404558677538,9.98709454254085,796000
1997-10-31,10.2820405122084,10.6180549080322,10.0113622489059,640400
1997-11-07,10.0726607781416,10.5157232511222,10.0595745447624,645200
1997-11-14,9.83897803922779,10.1418308688601,9.42956588065076,419200
1997-11-21,10.5512430274371,10.7606227615039,9.90814812994628,605600
1997-11-28,10.6559328944705,10.6559328944705,10.5269400225901,131200
1997-12-05,10.9830887289499,11.0541282815797,10.6559328944705,643200
1997-12-12,10.5400262559693,10.9830887289499,10.3530800648382,452800
1997-12-19,10.0595745447624,10.5680681846389,10.0016212255118,527600
1997-12-26,9.87262835363138,10.0950943210773,9.80345826291289,533600
1998-01-02,10.3063435170554,10.3867303792418,9.80345826291289,587200
1998-01-09,9.19588314173694,10.2820405122084,9.18466637026907,967200
1998-01-16,9.19588314173694,9.32487601361737,9.10241004617141,1120400
1998-01-23,9.32487601361737,9.39404610433586,8.96220040282311,808400
1998-01-30,9.53425574768416,9.86141158216352,9.2070999132048,1226800
1998-02-06,10.2620047113161,10.4379996835591,9.54866338765044,1265200
1998-02-13,10.2863444415199,10.5428477521293,9.99426767907413,465200
1998-02-20,10.8367968015139,10.8367968015139,10.3219178933562,551200
1998-02-27,10.8012233496775,10.9996857651856,10.683269272536,714800
1998-03-06,11.1045338337558,11.3516757096715,10.8012233496775,791600
1998-03-13,11.4209503264054,11.561371846812,11.057726660287,763600
1998-03-20,11.7954077141564,11.8197474443602,11.3741431529366,387200
1998-03-27,11.2449553541625,11.913361791298,11.2337216325299,480000
1998-04-03,11.432184048038,11.6081790202809,11.1981481806936,1166400
1998-04-10,11.2224879108974,11.4565237782418,11.0464929386544,811200
1998-04-17,10.9996857651856,11.3516757096715,10.9173051398803,707600
1998-04-24,10.9173051398803,11.3273359794677,10.4848068570279,1037200
1998-05-01,11.6081790202809,11.8422148876253,10.6252283774346,938000
1998-05-08,11.7525411782264,11.7750376679598,11.5538221855813,505200
1998-05-15,12.1855986055944,12.2793339794836,11.7637894230931,979600
1998-05-22,11.868773041849,12.3262016664282,11.868773041849,946000
1998-05-29,12.1499791635165,12.3505728636394,11.9043924839269,860000
1998-06-05,11.8931442390602,12.3374499112949,11.6944252464151,360400
1998-06-12,11.3419802405917,11.9512601708715,11.1076418058688,606400
1998-06-19,11.0251546768463,11.330731995725,10.967038745035,1112400
1998-06-26,11.2838643087804,11.4357156144809,11.0026581871129,483200
1998-07-03,11.7525411782264,11.9756313680827,11.2838643087804,526400
1998-07-10,12.0562437896274,12.0918632317052,11.7637894230931,476400
1998-07-17,12.2437145374057,12.5380436114178,12.103111476572,4096800
1998-07-24,12.2568374897502,12.3730693533728,12.232466292539,1941600
1998-07-31,11.5556968930591,12.2437145374057,11.2482448667026,2035600
1998-08-07,11.2271967377171,11.5688368992728,11.039482363236,858000
1998-08-14,11.2872653375511,11.2872653375511,10.7353850765765,620400
1998-08-21,11.2741253313374,11.8034798673742,11.1690052816279,976400
1998-08-28,10.4894792460062,11.8485313172497,10.3242905964628,506700
1998-09-04,10.7222450703628,11.0526223694496,9.87753038519768,735600
1998-09-11,10.0652447596788,11.0038166320845,9.90381039762504,308600
1998-09-18,10.4669535210685,10.5120049709439,9.62223883590333,723600
1998-09-25,9.01028997509481,10.5345306958817,8.30823821453534,2046600
1998-10-02,8.25943247717024,9.15295289970048,7.69628935372682,2106800
1998-10-09,7.74509509109191,8.44714685165138,7.39219206706737,1159600
1998-10-16,8.7287184133731,8.82257560061367,7.83895227833248,1219800
1998-10-23,11.2628624688685,11.2628624688685,8.82257560061367,840200
1998-10-30,10.0577361846996,11.1690052816279,9.52838164866276,1033800
1998-11-06,10.4826050403523,10.9037139946276,10.151733719136,1203200
1998-11-13,10.3171693797442,10.5277238568818,10.2457312535725,712000
1998-11-20,10.3397287880089,10.3397287880089,10.0577361846996,833600
1998-11-27,10.6217213913182,10.9525927125345,10.3397287880089,518000
1998-12-04,10.8585951780981,10.8811545863628,10.3886075059159,1015800
1998-12-11,10.4826050403523,11.3285828502803,10.3397287880089,706200
1998-12-18,10.5766025747888,10.6706001092252,9.39975344364447,835600
1998-12-25,10.5051644486171,11.3285828502803,10.4111669141806,629600
1999-01-01,10.5502832651466,10.6706001092252,10.1742931274008,651800
1999-01-08,10.0577361846996,10.8097164601911,9.79830298965499,679000
1999-01-15,10.1066149026065,10.1066149026065,9.02376330589869,963200
1999-01-22,10.2457312535725,10.4111669141806,9.6103079207821,408400
1999-01-29,10.2682906618372,10.4337263224454,10.151733719136,771200
1999-02-05,10.2601415647589,10.8964586012522,9.95516120998995,617200
1999-02-12,9.05904609350825,10.4032187682308,9.03645495611796,596800
1999-02-19,9.65018085522097,9.83844033347343,8.70888346395868,864000
1999-02-26,10.3090890291046,10.8738674638619,9.83844033347343,597000
1999-03-05,10.2601415647589,10.6366605212638,9.93257007259965,434600
1999-03-12,10.9679972029882,11.1562566812406,10.0718820865065,663800
1999-03-19,10.3542713038852,11.0131794777688,10.3090890291046,610200
1999-03-26,9.71795426739185,10.3542713038852,9.36779163784228,488600
1999-04-02,9.65018085522097,10.1660118256327,9.41297391262287,445200
1999-04-09,9.65018085522097,9.88362260825402,8.96491635438202,1107400
1999-04-16,10.802328862126,11.0621269421144,9.31884417349664,641600
1999-04-23,10.1660118256327,11.2955686951474,9.62382452826562,708800
1999-04-30,10.5425307821376,10.9190497386425,9.65018085522097,508400
1999-05-07,9.66444571975197,10.8409213594565,9.61542590143095,606600
1999-05-14,11.1237280036162,11.1727478219372,9.82658819573688,715600
1999-05-21,11.0784789405506,11.8778790547088,10.8899411777775,837200
1999-05-28,10.3695769525236,11.1011034720834,10.3469524209908,900000
1999-06-04,10.3469524209908,11.19537235347,10.275308071137,725200
1999-06-11,11.1727478219372,11.4555544660969,10.324327889458,352000
1999-06-18,11.2896412348566,11.5008035291625,10.935190240843,581000
1999-06-25,10.6297590651505,11.3122657663893,10.5128656522312,742200
1999-07-02,11.5234280606953,11.6440922288701,10.5807392468295,1096400
1999-07-09,10.6071345336177,11.3612855847104,10.1810391897504,608400
1999-07-16,11.1727478219372,11.3122657663893,10.7014034150043,444800
1999-07-23,11.0784789405506,11.3122657663893,10.0415212452983,838400
1999-07-30,10.9314194855876,11.146352535149,10.5581147152967,1015200
1999-08-06,10.6254606126323,10.9540831058065,10.2930608494216,516600
1999-08-13,10.436597110808,10.8143241144565,10.1268609678163,600600
1999-08-20,9.8435657150799,10.576356102158,9.79823847464208,1139200
1999-08-27,9.49227960168679,9.93799746599202,9.37140696051927,868800
1999-09-03,9.96443835624742,9.96443835624742,9.44317509121249,742200
1999-09-10,10.1041973475974,10.2477336089838,9.96443835624742,349600
1999-09-17,9.53760684212461,10.1041973475974,8.85392096552083,873200
1999-09-24,8.59328933300336,9.70380672372995,8.49885758209124,1284400
1999-10-01,9.65470221325564,10.1041973475974,8.64239384347767,832400
1999-10-08,9.72647034394886,9.82090209486099,9.02012084712617,612000
1999-10-15,9.87000660533529,9.96443835624742,9.68114310351104,454200
1999-10-22,9.53760684212461,10.2703972292027,9.0881117077829,862400
1999-10-29,10.1721882082541,10.1721882082541,9.06544808756399,1003600
1999-11-05,10.5506178290969,10.834440044729,10.1229923575445,739200
1999-11-12,10.2175997627552,10.5733236063474,10.0283849523338,339200
1999-11-19,10.5733236063474,11.0690664096515,10.1229923575445,689000
1999-11-26,10.1721882082541,10.6452252343076,9.861875919163,707800
1999-12-03,10.4787162011367,10.6906367888087,9.91107176987257,980400
1999-12-10,9.9564833243737,10.6452252343076,9.55534792628035,742000
1999-12-17,10.596029383598,10.6906367888087,9.74456273670174,1237400
1999-12-24,9.81646436466187,10.5241277556379,9.60454377698991,547800
1999-12-31,9.50993637177921,9.93377754712314,9.34342733860839,772000
2000-01-07,9.861875919163,10.834440044729,8.84768453530434,1291800
2000-01-14,10.1229923575445,10.3614030186755,9.64995533149104,827600
2000-01-21,9.64995533149104,10.1570510234204,9.50993637177921,415600
2000-01-28,8.46925491446155,9.888365992622,8.46925491446155,1220000
2000-02-04,8.75307713009364,9.83917014191244,8.32545165854129,1325800
2000-02-11,8.43882033617568,9.1025477783468,8.3667584995971,595800
2000-02-18,8.93566773574378,9.17460961492538,8.15436571810234,1339800
2000-02-25,8.84084952971933,9.24667145150396,8.62845674822457,1567800
2000-03-03,9.409758765866,9.64870064504761,8.39330759728395,1618400
2000-03-10,8.58294400933284,9.38700239642014,7.63476194908838,1225600
2000-03-17,9.3414896575284,9.48182060244458,8.27194029357265,1931400
2000-03-24,9.74351885107206,10.2176098811943,9.15185324547951,806600
2000-03-31,10.1227916751698,10.4793081298218,9.19736598437125,787800
2000-04-07,9.67145701449348,10.1948535117484,9.19736598437125,958600
2000-04-14,9.17460961492538,10.0279734691454,9.05703503945507,545800
2000-04-21,9.81558068765063,9.81558068765063,8.86739862740617,452800
2000-04-28,10.8092754867868,10.8092754867868,9.76627522051792,1012200
2000-05-05,10.3536401431944,10.6386027159428,10.045880564626,574800
2000-05-12,10.3764371490142,10.4486276674438,9.78371499769742,638400
2000-05-19,10.425830661624,10.4486276674438,10.0914745762658,600200
2000-05-26,10.2130586073051,10.4486276674438,10.0686775704459,652400
2000-06-02,10.4486276674438,10.4486276674438,10.0686775704459,581600
2000-06-09,10.3536401431944,10.4486276674438,10.0686775704459,400600
2000-06-16,10.7107932343724,10.7335902401923,10.235855613125,1014200
2000-06-23,10.6879962285526,10.9957558071209,10.5436151916933,915000
2000-06-30,10.2586526189449,11.1363373430101,10.2586526189449,1248600
2000-07-07,10.972958801301,11.2807183798694,10.3536401431944,597000
2000-07-14,10.8779712770515,11.3985029099387,10.6386027159428,626800
2000-07-21,9.23658685802036,11.0185528129408,8.88323326781226,1372600
2000-07-28,9.25558436287026,9.64313346180817,9.23274046892652,1793400
2000-08-04,9.44595014573472,9.59062814071171,9.25558436287026,728200
2000-08-11,9.75815002963244,9.97135970644064,9.40026235784725,554200
2000-08-18,9.20989657498279,9.85333292106468,9.11471368355055,650600
2000-08-25,8.87485279714133,9.35076725430249,8.47127733746866,1164600
2000-09-01,8.97003568857356,9.11471368355055,8.71113822387789,1092000
2000-09-08,9.25558436287026,9.37741846390351,8.7796699057091,824400
2000-09-15,9.37741846390351,9.66296713820021,9.18705268103905,831600
2000-09-22,8.75682601176536,9.28223557247128,8.33040665814896,1053200
2000-09-29,9.11471368355055,9.20989657498279,8.5664602289009,902000
2000-10-06,8.4941212314124,9.35076725430249,8.4941212314124,896600
2000-10-13,8.85200890319759,8.85200890319759,8.16288476922823,981200
2000-10-20,7.5689435266911,8.85200890319759,7.37857774382664,1995800
2000-10-27,7.73265809995454,7.7821532034993,7.42426553171411,1303800
2000-11-03,7.96930391980872,7.99220421842886,7.58763227613972,1653400
2000-11-10,8.49219407163525,8.82806511806397,7.89678630751161,3075200
2000-11-17,9.3509552698905,9.541791091725,8.49219407163525,1478000
2000-11-24,9.44637318080775,9.56469139034514,8.82806511806397,498800
2000-12-01,9.59140840540197,9.75552721217964,9.25553735897325,605400
2000-12-08,9.70972661493936,9.87766213815372,9.541791091725,859000
2000-12-15,10.3280346776831,10.5188704995176,9.59140840540197,986800
2000-12-22,10.8318412473262,10.8318412473262,10.305134379063,1079600
2000-12-29,11.2135128909952,11.499766623747,10.6410054254917,578200
2001-01-05,10.5684878131946,11.2135128909952,10.4005522899803,751000
2001-01-12,11.2593134882355,11.2822137868556,10.0913982586084,1196800
2001-01-19,10.7593236350291,11.3089308019125,10.7097063213521,819600
2001-01-26,10.9005421431866,11.3318311005326,10.686806022732,664800
2001-02-02,10.957792889737,11.5761009524808,10.8585582623831,1266200
2001-02-09,10.8968331675103,11.3174126932739,10.7897765609523,707400
2001-02-16,10.9350676698525,11.302118892337,10.8891862670419,740600
2001-02-23,11.2332967881212,11.4703507026425,10.9006566177446,643000
2001-03-02,11.1338870820316,11.5582900580294,10.8777159163393,963200
2001-03-09,11.7762267213796,11.9865164842614,11.1338870820316,836400
2001-03-16,11.1644746839053,12.0821027401167,11.1644746839053,1728400
2001-03-23,11.3097657928055,11.8526957260639,10.9006566177446,1573000
2001-03-30,11.6500528636505,11.8144612237217,11.0421242764105,717800
2001-04-06,11.6806404655242,11.8526957260639,11.1835919350764,381400
2001-04-13,11.6997577166953,12.0056337354324,11.5124086552188,392800
2001-04-20,12.1968062471432,12.4300367114302,11.60417146084,803200
2001-04-27,12.1968062471432,12.5409167682224,11.8641660767665,1630000
2001-05-04,12.7139527110577,12.8288378259167,11.8714618687587,825200
2001-05-11,13.2768897738666,13.7402597371311,12.4458874430535,1137600
2001-05-18,13.5755910724999,14.2495837463391,13.0777555747778,1329600
2001-05-25,13.1773226743222,14.1653346621092,12.867132864203,796200
2001-06-01,12.7369297340295,13.1734931704936,12.5416250387693,582600
2001-06-08,13.345820842782,13.5564435533567,12.5990675961988,510800
2001-06-15,13.0586080556346,13.4607059576409,12.8096903067735,603000
2001-06-22,12.7905427876304,13.7862137830746,12.6679986651141,1150000
2001-06-29,12.4190809162531,12.9475524446043,12.1854811827065,982800
2001-07-06,12.0054945027608,12.5569430540838,11.9671994644745,453000
2001-07-13,12.1433566405916,12.3271728243659,11.6799866773271,860400
2001-07-20,12.6105561076847,12.8633033603744,12.0476190448758,455400
2001-07-27,12.7139527110577,13.0586080556346,12.3501498473377,893800
2001-08-03,12.8520644484138,12.8712466341577,12.3533276190724,491000
2001-08-10,12.8328822626699,12.8981016941992,12.587350285148,512600
2001-08-17,13.4927494522601,13.5618053209382,12.7561535196943,623600
2001-08-24,13.7114263697406,13.9070846643284,13.197343791804,804000
2001-08-31,13.7306085554845,14.1948174504869,13.5196045123016,750600
2001-09-07,13.5809875066821,14.0797243360235,13.1206150488284,835400
2001-09-14,13.4275300207309,13.5272773865991,13.2740725347796,86200
2001-09-21,11.5323300692334,13.3316190920113,10.9338458740237,823200
2001-09-28,12.1998701331212,12.4684207335358,11.5860401893163,919200
2001-10-05,12.5259672907675,12.6602425909748,11.7088061780773,763400
2001-10-12,13.0515591801504,13.2165259775479,12.0924498929553,497200
2001-10-19,11.1256677314627,13.3277826548626,10.3967446731945,2824600
2001-10-26,11.5016385720432,11.697296866631,11.2522701573725,786200
2001-11-02,11.8322179799054,12.0205801244848,11.5016231955416,551800
2001-11-09,11.909100487897,12.4165250406415,11.7937767259096,675800
2001-11-16,12.4434339184385,12.7240550726078,11.7053618417193,629000
2001-11-23,12.6471725646162,12.685613818612,12.2627600246583,1158600
2001-11-30,12.6087313106204,12.7432756996057,12.1858775166667,953000
2001-12-07,13.07002635857,13.1968824967561,12.4741869216352,1160600
2001-12-14,12.4934075486331,13.1661294935595,12.4703427962356,1167800
2001-12-21,13.1853501205574,13.2237913745531,12.5241605518297,882600
2001-12-28,13.0431174807729,13.4159976445321,13.0431174807729,271800
2002-01-04,13.3506475127393,13.6158921653102,12.9547025965826,846800
2002-01-11,11.6822970893218,13.5620744097161,11.4900908193428,3085800
2002-01-18,11.497779070142,11.7245824687172,11.4362730637487,2311400
2002-01-25,11.7361148449159,11.8399062307046,11.4747143177445,1951000
2002-02-01,12.2819806516562,12.5433811788276,11.6284793337277,1212000
2002-02-08,12.7674030754964,12.7674030754964,12.0702990161707,715600
2002-02-15,13.0138929086282,13.1486920361221,12.4785478022951,1199800
2002-02-22,13.0292985231989,13.1910574761916,12.8059171119233,995000
2002-03-01,13.3181537964002,13.5261295931051,12.8636881665635,914600
2002-03-08,13.2796397599733,13.4799127493929,13.0562583486977,1589200
2002-03-15,13.0562583486977,13.210314494405,12.7558488645684,887200
2002-03-22,12.8482825519928,13.3065995854721,12.7866600937098,1079600
2002-03-29,13.4991697676063,13.5530894186039,12.8251741301367,741600
2002-04-05,13.7109969679539,13.807282059021,13.3104509891148,816000
2002-04-12,14.4504664673492,14.4620206782772,13.587752051388,814400
2002-04-19,13.8149848663064,14.635333842198,13.7880250408076,651400
2002-04-26,14.0152578557259,14.2116794415028,13.5261295931051,933400
2002-05-03,14.4816784929673,14.944598423483,13.9068862459103,764000
2002-05-10,14.1383462111681,14.5434011503694,14.076623553766,561800
2002-05-17,14.3196565172868,14.5819778112457,14.0573352233279,736200
2002-05-24,13.930032242436,14.2772221903228,13.6908569450029,769600
2002-05-31,14.4199558355652,14.6012661416839,13.6252766215132,698200
2002-06-07,14.1576345416063,14.4276711677405,13.6908569450029,826800
2002-06-14,13.0890610353325,14.2077842007455,12.7187250909199,775800
2002-06-21,13.4246779849564,13.6947146110905,13.1855026875232,573000
2002-06-28,11.8623232194658,13.5789846284616,11.8623232194658,2018200
2002-07-05,12.1709365064762,12.5759914456775,11.7311625724863,757600
2002-07-12,11.3222499671974,12.267378158667,11.1872316541303,655600
2002-07-19,10.7628883844909,11.2875309724087,10.2613917930988,893800
2002-07-26,10.9017643636456,10.9868135891776,10.2613917930988,1339800
2002-08-02,11.3656692301837,11.9726114305711,10.998411210841,966800
2002-08-09,11.8875622050391,11.9571479350198,11.0563993191583,489200
2002-08-16,12.0421971605518,12.0885876472056,11.3076811218664,284600
2002-08-23,12.1543075032985,12.3707964410163,11.9068915744782,523400
2002-08-30,12.4094551798945,12.4867726576508,11.9068915744782,568400
2002-09-06,11.8605010878244,12.4287845493335,11.6942685106482,524200
2002-09-13,11.7522566189655,12.2316249810549,11.6169510328919,371200
2002-09-20,11.2806200046517,11.7909153578436,11.1723755357928,804200
2002-09-27,10.4339936232197,11.2187660224466,10.3798713887902,942600
2002-10-04,10.0048816216719,10.6582143087131,9.97395463056938,1137800
2002-10-11,10.1556507032968,10.3373467760242,9.60283073733889,586000
2002-10-18,10.109260216643,10.2986880371461,9.81931967505668,982200
2002-10-25,10.8051175164502,10.8631056247674,10.0087474955597,957400
2002-11-01,10.8670962042645,10.8825929546449,10.5920288850122,522800
2002-11-08,10.9252090181911,11.2351440257993,10.847725266289,506400
2002-11-15,11.1189183979462,11.3126277777014,10.847725266289,479800
2002-11-22,11.2118989002287,11.3436212784622,10.9678250817372,533800
2002-11-29,11.5760725341684,11.7581593511383,11.0801765219952,450000
2002-12-06,12.0835911091269,12.2036909245751,11.6535562860705,559600
2002-12-13,11.7581593511383,12.1262071726731,11.5334564706223,483000
2002-12-20,12.7848190638406,12.7848190638406,11.6613046612607,1772000
2002-12-27,11.9131268549424,12.7886932514357,11.6225627853097,1117400
2003-01-03,12.00998154482,12.1378297354584,11.7969012270893,513000
2003-01-10,11.8550140410159,12.19981673698,11.7194174751872,488400
2003-01-17,11.7194174751872,12.0177299200102,11.5450790334076,471400
2003-01-24,11.2855084645357,11.7349142255676,11.2080247126336,305800
2003-01-31,11.111170022756,11.2893826521308,10.7547447640065,449600
2003-02-07,10.5796391835902,11.1620046432374,10.5757567471926,489400
2003-02-14,11.3949508270963,11.596837519774,10.2923388901643,784400
2003-02-21,11.6744862477269,11.7366052300893,11.2668304259739,1076800
2003-02-28,11.7637822848728,11.7831944668611,11.3173020991433,769000
2003-03-07,11.7754295940658,11.8996675587905,11.4337751910728,814000
2003-03-14,11.7831944668611,11.8414310128258,11.4609522458563,1212400
2003-03-21,12.819804985033,12.819804985033,11.6473091929434,777400
2003-03-28,12.5790939283789,12.7926279302495,12.2917936349529,550200
2003-04-04,12.3655599265082,12.8120401122377,12.0394352691058,777200
2003-04-11,11.9967284687317,12.8003928030448,11.8996675587905,521800
2003-04-18,12.1520259246376,12.4703857092447,12.004493341527,605800
2003-04-25,12.5829763647765,13.1342823332425,12.2490868345788,944400
2003-05-02,13.2743472745936,13.499929501938,12.5014452004259,1168600
2003-05-09,13.7410691242717,13.7410691242717,13.2626792283516,892400
2003-05-16,13.5349336406639,13.6866182418092,13.4960401531907,667200
2003-05-23,13.3949170857604,13.5232655944219,13.254900530857,698600
2003-05-30,13.6127206156102,13.7021756367985,13.3910277370131,344000
2003-06-06,13.9355365616375,14.0094341878366,13.6516141030834,434800
2003-06-13,13.7488478217663,14.0405489778151,13.6905075905565,632200
2003-06-20,13.6516141030834,14.1961229277078,13.6477247543361,694000
2003-06-27,13.6516141030834,13.8071880529761,13.2237857408785,561400
2003-07-04,14.1572294402346,14.2311270664336,13.6516141030834,458000
2003-07-11,14.1766761839712,14.5072708274931,14.1183359527614,518800
2003-07-18,14.2739099026541,14.7406317523322,14.0599957215517,723800
2003-07-25,14.5150495249878,14.6822915211224,14.2272377176863,745000
2003-08-01,14.4760829490818,14.7878155563298,14.2617667815987,740400
2003-08-08,14.3202166454577,14.4721862914912,13.8721010225387,453600
2003-08-15,14.8072988442828,14.8072988442828,14.0279673261627,404200
2003-08-22,14.7683322683768,15.2359311792489,14.7293656924708,653600
2003-08-29,15.2593111247925,15.2748977551549,14.5150495249878,386000
2003-09-05,14.9748551206787,15.469730634685,14.7683322683768,404800
2003-09-12,15.1579980274369,15.37231419492,14.6514325406588,476600
2003-09-19,14.6514325406588,15.1969646033429,14.5111528673972,608000
2003-09-26,13.9149642560353,14.8813353385043,13.9149642560353,989400
2003-10-03,15.1969646033429,15.2047579185241,13.9928974078473,624200
2003-10-10,15.1774813153899,15.3684175373293,14.7878155563298,577000
2003-10-17,14.5345328129408,15.508697210591,14.3202166454577,1046400
2003-10-24,14.0357606413439,14.5345328129408,13.9734141198943,750600
2003-10-31,13.9771818638754,14.0747878824779,13.8990970489934,568200
2003-11-07,14.2504787159624,14.5159670865611,13.8132037526232,1085600
2003-11-14,14.1528726973599,14.2895211234034,13.9576606601549,459400
2003-11-21,13.6765553265798,14.1919151048009,13.5633323450009,769200
2003-11-28,13.6297044376506,13.6921722895562,13.4696305671425,661600
2003-12-05,14.3676059382853,14.4652119568878,13.6258001969065,1878000
2003-12-12,14.3637016975412,14.4456907531673,14.0201285120605,1400200
2003-12-19,14.9259123646915,14.9259123646915,14.3793186605176,1388800
2003-12-26,15.1367413648729,15.1367413648729,14.8868699572505,481800
2004-01-02,15.0547523092468,15.4139424577039,14.9532420499002,729000
2004-01-09,15.6169629763971,15.7145689949996,15.0157099018058,1322400
2004-01-16,15.4998357540741,15.8316962173226,15.2304431427313,715200
2004-01-23,15.5466866430033,16.0308124952716,15.4373679021685,834600
2004-01-30,15.6442926616058,15.929302235925,15.4217509391921,598800
2004-02-06,15.6521148079366,15.7616248565678,15.3157625157121,499800
2004-02-13,15.8515795393721,16.4265072946861,15.7420694907408,564800
2004-02-20,15.7616248565678,16.113621441454,15.6442926616058,529000
2004-02-27,15.8202909540489,16.0432221244767,15.4487390033357,732600
2004-03-05,15.8202909540489,16.0627774903038,15.6638480274328,590000
2004-03-12,15.0185209551416,15.9102456368531,14.9598548576605,657200
2004-03-19,15.0146098819762,15.2140746134116,14.5687475411204,778000
2004-03-26,14.7134572482403,15.0771870526226,14.3575495901887,955800
2004-04-02,15.3235846620429,15.3235846620429,14.7603901262251,743000
2004-04-09,15.4174504180125,15.6442926616058,15.3118514425467,477200
2004-04-16,15.6990476859214,15.9493563685071,15.0576316867956,562800
2004-04-23,16.1175325146194,16.6533495382794,15.6442926616058,951600
2004-04-30,15.397626036571,16.250509002243,15.0254187914121,1084400
2004-05-07,15.4054619785743,15.8834544407783,15.2879228485241,945600
2004-05-14,15.0645985014288,15.4172158915793,14.7707506763034,797600
2004-05-21,15.3780361815626,15.5347550216295,14.7315709662867,873800
2004-05-28,15.9265521217967,16.0323373388418,15.4368057465877,989800
2004-06-04,15.9774857448184,16.1655483528987,15.7110637167047,729800
2004-06-11,16.0127474838335,16.3379390769722,15.9069622667883,948800
2004-06-18,16.8707831331996,16.9099628432163,16.0440912518468,1248200
2004-06-25,16.7336541481411,17.3174318273902,16.6709666121144,2577800
2004-07-02,16.890372988208,17.2664982043685,16.6357048730993,1176000
2004-07-09,16.5299196560542,16.9726503792431,16.3575289319806,675800
2004-07-16,16.5965251630826,16.9961582052531,16.3183492219639,952200
2004-07-23,16.6788025541177,17.5760179135006,16.6512797776258,1646400
2004-07-30,16.6355524767732,16.8006891357249,16.336733760575,1678800
2004-08-06,16.1008242477869,17.009075872021,16.1008242477869,1033000
2004-08-13,16.4782794682478,16.891121115627,16.0850969469343,887200
2004-08-20,17.4494402958921,17.4769630723841,16.4232339152639,816000
2004-08-27,17.8740774189107,17.9684412240259,17.2803718117273,935800
2004-09-03,18.0470777282886,18.4402602496021,17.4376448202527,749800
2004-09-10,17.9684412240259,18.4206011235364,17.7050089347459,769200
2004-09-17,17.9016001954026,18.204350736814,17.7718499633692,677000
2004-09-24,17.6263724304832,18.3026463671424,17.5438041010073,631000
2004-10-01,17.9291229718946,17.9291229718946,17.036598648513,1050200
2004-10-08,17.6932134591065,18.2082825620271,17.5359404505811,1008600
2004-10-15,18.08639598042,18.5110331034385,17.4966221984497,1204200
2004-10-22,18.0903278056331,18.7744653927185,17.8937365449763,1247000
2004-10-29,18.5065286823205,18.9364544338919,17.9369866223208,1030000
2004-11-05,19.5754266518237,19.7095319321304,18.3803119479143,1053000
2004-11-12,19.721364750981,19.741086115732,18.9403987068421,896000
2004-11-19,19.6227579272261,20.0921264082994,19.5833151977241,874800
2004-11-26,20.1591790484527,20.3287827853112,19.5241511034712,602200
2004-12-03,20.7113772614802,21.2675197474579,20.1157920460006,1028400
2004-12-10,20.4313338820163,20.7113772614802,19.8199715747359,1321000
2004-12-17,20.70743298853,21.2359655638563,20.4510552467673,1002600
2004-12-24,21.2477983827069,21.6501142236269,20.6048818918249,656000
2004-12-31,20.8178726311355,21.3858479359638,20.7981512663845,553400
2005-01-07,19.3269374559614,21.6501142236269,19.2441077240072,1252200
2005-01-14,19.3229931830112,19.9106898525904,18.8536247019378,1115600
2005-01-21,19.1691665379535,19.7055876591802,18.9325101609417,661400
2005-01-28,18.7550178781829,19.2677733617084,18.6485225085276,694000
2005-02-04,19.8417183549634,19.8615007262047,18.8525997929015,855000
2005-02-11,19.659720539544,20.0395420673758,19.0702058765551,837800
2005-02-18,19.7428064987573,19.9643690566591,19.3629849709254,1019600
2005-02-25,20.5380578226551,20.5380578226551,19.3471590739325,838800
2005-03-04,20.8980969792457,21.1077901144028,20.0632809128653,968600
2005-03-11,20.3956247497182,21.0721818461686,20.1226280265891,831000
2005-03-18,20.2452787282847,20.8901840307492,19.9920643763969,1110000
2005-03-25,19.738850024509,20.4984930801726,19.5133309923589,695400
2005-04-01,20.9693135157141,21.0484430006791,19.6280687455581,1731600
2005-04-08,20.8743581337562,21.7091742001365,20.7319250608192,1121000
2005-04-15,19.3827673421667,21.1157030628993,19.2680295889675,1873200
2005-04-22,19.5252004151036,20.185931614561,18.8684256898945,1531200
2005-04-29,19.1411163738645,19.7309370760125,18.6529643286675,1383200
2005-05-06,20.2404506545115,20.2642629493992,19.1212727947915,1183200
2005-05-13,19.5776751134716,20.4349177294274,19.4506762074041,1114800
2005-05-20,20.2087009279946,20.8794139006637,19.5141756604379,1081800
2005-05-27,20.3039501075453,20.601603793641,19.788017051646,982800
2005-06-03,19.5856125451008,20.2364819386969,19.4467074915895,954200
2005-06-10,19.4546449232187,20.0975768851855,19.0299923310554,991600
2005-06-17,19.7642047567583,20.2206070754385,19.3474895962242,1224000
2005-06-24,19.6610181455784,19.8951723786404,19.248271700859,2689200
2005-07-01,20.2404506545115,20.3912618554667,19.4467074915895,1654000
2005-07-08,20.3634808447644,20.3952305712813,19.5459253869547,598200
2005-07-15,19.9269221051573,20.6770093941186,19.8356416414213,846000
2005-07-22,19.9864528423765,20.2364819386969,19.6054561241739,1052200
2005-07-29,19.8634226521235,20.2364819386969,19.7284863144268,1057200
2005-08-05,19.92319222881,20.1782090893387,19.7877145216541,1107400
2005-08-12,19.9749925286049,20.2140708353506,19.8674072905693,872000
2005-08-19,19.5765286840287,20.2021169200133,19.3693274848491,863200
2005-08-26,19.2139265854643,19.7359142218592,19.2139265854643,408400
2005-09-02,19.8474840983405,20.1025009588693,19.0465717707423,684400
2005-09-09,19.7598220525337,20.3216560733862,19.588482599366,422800
2005-09-16,19.3653428464033,20.022808189954,19.1302491781033,693600
2005-09-23,19.1780648394525,19.5406669380168,18.7716317179848,1154800
2005-09-30,19.8474840983405,20.2180554737964,19.6323136222694,1038000
2005-10-07,19.8913151212439,20.2818096889286,19.5446515764626,1070400
2005-10-14,20.7001967257336,20.8037973253234,19.5087898304507,1332400
2005-10-21,19.3454196541745,21.078737378081,18.9668790018271,1987400
2005-10-28,20.2220401122421,20.2300093891337,19.2179112239101,1678400
2005-11-04,20.8730774143228,21.061087118898,20.1090379765812,935000
2005-11-11,21.161092280906,21.2330959975518,20.4610561468496,747600
2005-11-18,21.4491071474893,21.7731238723954,20.8610767948819,588600
2005-11-25,21.6091154067022,21.657117884466,21.2010943457093,425800
2005-12-02,21.8811294473641,22.0011356417738,21.1050893901815,1096800
2005-12-09,21.7971251112773,22.1931455528292,21.5091102446941,1249400
2005-12-16,21.0410860864964,22.0011356417738,20.9610819568899,1093400
2005-12-23,21.2290957910715,21.2610974429141,20.801073697677,1199400
2005-12-30,20.8810778272835,21.4851090058122,20.8610767948819,462200
2006-01-06,21.4371065280483,21.6251162326235,20.6850677097477,818800
2006-01-13,21.6611180909464,21.9011304797657,21.4371065280483,605600
2006-01-20,22.0251368806557,22.0811397713802,21.4051048762057,437000
2006-01-27,21.9131310992067,22.2211469981915,21.4571075604499,621400
2006-02-03,22.2261125195812,22.8323522216145,21.8808369276946,834400
2006-02-10,22.8684857137887,23.0652125045148,21.7965254459549,694600
2006-02-17,21.7884957810273,22.8162928917593,21.4311756917493,1205600
2006-02-24,21.5917689903012,21.7844809485635,21.4472350216045,689600
2006-03-03,21.4472350216045,21.7603919537807,21.0577962726162,795000
2006-03-10,21.8005402784187,21.8005402784187,21.0698407700076,844600
2006-03-17,22.0815785508845,22.2140680221898,21.6519914772582,801200
2006-03-24,21.8647775978394,22.2060383572622,21.7523622888531,705600
2006-03-31,22.1819493624794,22.2180828546536,21.4833685137787,900200
2006-04-07,21.5114723410253,22.2140680221898,21.318760382763,807800
2006-04-14,21.1782412465301,21.4592795189959,21.0056034505868,487600
2006-04-21,20.9975737856592,21.7684216187083,20.4836752302932,987800
2006-04-28,21.1222794765132,21.3681216913705,20.6282091989899,1136000
2006-05-05,21.750990714509,21.8315947193803,21.0174942701806,796000
2006-05-12,21.3237894886913,22.0451953322891,21.0457056718855,642800
2006-05-19,21.0376452713984,21.557541102818,20.8643466609252,738200
2006-05-26,20.8482258599509,21.2109438818716,20.312209227557,1224200
2006-06-02,21.2109438818716,21.2875176864993,20.6950782506955,998800
2006-06-09,20.8724070614123,21.400363293319,20.4371454351075,1258200
2006-06-16,20.4250548343768,20.9530110662836,20.0623368124561,1033600
2006-06-23,20.3565414302362,20.533870240953,19.9938234083156,1018600
2006-06-30,19.9938234083156,21.3600612908834,19.9938234083156,4801400
2006-07-07,19.8487361995473,20.6950782506955,19.8003737966246,1874200
2006-07-14,19.2482363632564,20.4492360358382,18.8855183413358,1663400
2006-07-21,19.6311053863949,20.7958332567846,18.9459713449892,1891600
2006-07-28,20.8925580626301,21.0058846077199,19.8084341971117,1608400
2006-08-04,21.1232585294201,21.3458642429894,20.394730739557,1342400
2006-08-11,20.4513940121019,21.0423109972131,20.1822434675136,1335200
2006-08-18,21.0908795165373,21.3499116195997,20.3542569734535,950000
2006-08-25,20.406872869388,21.098974269758,20.2854515710775,900400
2006-09-01,20.8480369199162,21.3094378534962,20.3987781161673,1275600
2006-09-08,20.232835675143,21.1434954124718,19.9738035720805,993600
2006-09-15,20.3016410775189,20.8439895433059,20.0102299615737,1398600
2006-09-22,20.0709406107289,20.5809100636331,19.7916716246147,1550800
2006-09-29,20.5930521934642,21.1070690229787,19.9697561954702,1802200
2006-10-06,21.2244429446789,21.3499116195997,19.9899930785219,1831000
2006-10-13,22.2322397206562,22.3131872528632,21.0463583738234,1426600
2006-10-20,22.6855459010154,22.96886226374,21.8558336958936,1588000
2006-10-27,22.2241449674355,22.96886226374,22.1674816948906,1484400
2006-11-03,22.6783536578371,22.7393060507537,21.8453376213102,1773600
2006-11-10,23.1862902654754,23.3447664870586,22.560512364865,1716200
2006-11-17,24.5841318096962,24.6613381740572,23.0806394510867,2258600
2006-11-24,24.5638143453907,24.7629254955849,24.2590523808076,1140200
2006-12-01,24.5841318096962,24.8970207600014,24.1412110878355,1789000
2006-12-08,24.3931476452242,25.3114970318343,24.2143539593355,1712400
2006-12-15,24.2874968308354,24.5516238668073,23.9583539090857,1706600
2006-12-22,23.6698459159471,24.3809571666408,23.5032427086418,1753000
2006-12-29,23.9908618519746,24.576004823974,23.588576058725,856400
2007-01-05,23.6495284516416,24.6654016669183,23.4707347657529,1069000
2007-01-12,24.5313064025018,24.5597508525295,23.3447664870586,1092800
2007-01-19,24.6654016669183,25.1936557388622,24.1493380735578,1253200
2007-01-26,24.6979096098072,25.1123858816401,24.2549888879465,1890800
2007-02-02,25.1290186532665,25.275828888826,24.7171343812801,1760600
2007-02-09,26.9152098525736,28.6850888034853,24.590714456215,4221800
2007-02-16,26.6215893814546,27.1558155164072,26.217861233666,2464000
2007-02-23,27.2373767583847,27.3434063729555,26.4951694563895,1979400
2007-03-02,26.8254924863984,27.6288707198767,26.3035005377424,3501000
2007-03-09,27.0946445849241,27.4657482359217,26.4421546491041,2301400
2007-03-16,26.7683996170141,27.5065288569105,26.3035005377424,1882600
2007-03-23,27.9388034393912,27.9591937498856,26.805102175904,1298600
2007-03-30,27.294469627769,27.8694763837103,27.0742542744297,1461400
2007-04-06,27.9755059982811,28.0407549918631,27.1925180752971,749400
2007-04-13,28.2813606556967,28.5382785679258,27.4698262980206,1106800
2007-04-20,30.6344024867474,31.3929220371381,28.0570672402586,3148200
2007-04-27,30.8056810949002,31.2297995531831,30.0226931719162,1859400
2007-05-04,30.6899359497236,30.9395807147501,29.9082613575917,1758000
2007-05-11,30.4566613332235,30.8741001206448,29.4580822731178,1994174
2007-05-18,30.1292583626971,30.6694732640657,29.5890434613284,2012200
2007-05-25,30.3666255163288,30.9395807147501,29.9410016546444,1772700
2007-06-01,31.1442075713291,31.3570195021713,30.2929598479603,1563700
2007-06-08,30.2684046251708,31.3488344279081,29.8837061348022,1189300
2007-06-15,31.037801605908,31.242428462487,29.2452703422756,1670000
2007-06-22,29.3107509363809,31.1032822000133,29.0406434856966,1597400
2007-06-29,29.1061240798019,30.1047031399076,28.6477599210649,1521700
2007-07-06,30.3502553678024,30.3911807391182,29.3189360106441,738600
2007-07-13,31.0296165316448,31.0296165316448,29.7527449465917,1300100
2007-07-20,31.0623568286975,32.2655627453822,29.9410016546444,3928000
2007-07-27,29.0651987084861,31.3815747249608,28.7448078804389,2597000
2007-08-03,29.7224106634547,30.7000134464705,28.753023029876,3160100
2007-08-10,31.9076404137253,32.8852431967411,28.7119472826905,3521400
2007-08-17,30.8725315846497,32.9345340933637,29.1062744556716,2574500
2007-08-24,30.0674469398132,31.0779103205774,29.3691592376591,2037000
2007-08-31,29.8456379050113,30.1167378364359,28.6215806388823,1297300
2007-09-07,28.0958110749074,30.1085226869987,27.8674299205558,1750300
2007-09-14,28.0218747299735,28.82695937481,27.4139536716275,2081100
2007-09-21,30.0838772386874,30.4124832161717,27.6850536030521,2299600
2007-09-28,31.1107709183259,31.3983011486246,29.5334622264012,1291300
2007-10-05,32.80309170237,32.9509643922379,31.0121891250806,1216000
2007-10-12,32.5237766215083,32.9509643922379,31.5379586890554,1183500
2007-10-19,33.6821126921405,34.8897396593953,31.6529707811749,2358600
2007-10-26,36.4670483513199,36.7463634321816,33.3863673124046,2942300
2007-11-02,35.398142541519,36.8730651474157,34.6812807163067,2191100
2007-11-09,34.2940105348701,36.2550808153361,33.7831434870177,1869800
2007-11-16,34.145694295171,35.6453362743509,33.6964608847047,1835200
2007-11-23,34.6071225964571,34.9861529867993,32.8190879289735,1287000
2007-11-30,34.7801582094394,35.8513310517107,33.3052356035428,2401700
2007-12-07,35.8018923051444,36.065483222254,33.4617916343363,1181700
2007-12-14,34.3764084458141,36.2633206064304,34.2857707437758,1474800
2007-12-21,34.9449540313273,35.2168671374423,32.703730853652,2627600
2007-12-28,34.3516890725309,35.8513310517107,34.0632963842271,824600
2008-01-04,33.2969958124484,35.2003875552535,32.1351852681388,1923800
2008-01-11,31.3112061586993,33.6595466206018,31.3112061586993,2661100
2008-01-18,28.9299065324193,32.4482973297258,27.2984278957292,3079000
2008-01-25,29.9598804192186,30.322431227372,27.0841933272749,2722300
2008-02-01,31.4698569019891,32.0155769638733,29.1298754245159,2538200
2008-02-08,30.0559458325618,31.5442732740642,28.005361357603,3308700
2008-02-15,32.197483651168,32.925110400347,30.0063349178451,8131400
2008-02-22,32.06518787859,32.6357133978326,31.2548762715499,1765100
2008-02-29,30.9902847263939,33.1318225450001,30.8331834964575,2430000
2008-03-07,29.5846421427528,31.5111993309197,28.9562372230073,3444900
2008-03-14,29.27043968288,30.6264713518044,28.6916456778513,2817700
2008-03-21,31.1721914136886,32.1478727364513,28.534544447915,3371500
2008-03-28,31.8750127055092,32.8754994856302,31.263144757336,1545800
2008-04-04,33.5369783485202,34.0496244672599,31.6021526745671,1741000
2008-04-11,32.925110400347,34.0165505241154,32.7101297699077,1548200
2008-04-18,36.6045865751723,37.5554624405766,32.4125469664651,3733000
2008-04-25,37.1668436086287,37.5389254690043,35.8769598259933,2351200
2008-05-02,36.5618960034304,37.5901734142776,36.3297043300133,1945300
2008-05-09,36.2633638518941,37.1092049479136,35.2350864410469,1740500
2008-05-16,37.0843272686189,37.4906626970989,35.873613542944,1338700
2008-05-23,36.4458001667218,37.194618313492,35.8238581843546,2100600
2008-05-30,37.0843272686189,38.0545567611118,35.8487358636493,2207700
2008-06-06,37.1174975076785,38.3033335540587,36.3214117702484,2113100
2008-06-13,35.873613542944,37.4326147787446,35.3263045984608,2422800
2008-06-20,34.9448468492755,36.0062944991823,34.7043626160935,2204100
2008-06-27,35.1272831641032,35.5170334730534,33.7838884821899,6955000
2008-07-04,34.1321759923156,35.2931343594012,33.5765744880675,2128100
2008-07-11,34.3477825462029,34.8950914906861,33.37755305371,1693200
2008-07-18,31.5697750249625,36.18873081401,30.8566148851813,4550500
2008-07-25,31.1717321562474,32.2995202842734,30.3010133809332,3353900
2008-08-01,32.2301454527023,33.20429348111,30.5982393538313,2234700
2008-08-08,33.0794027082372,33.5539876451538,31.3808881971674,1673600
2008-08-15,33.7038565726011,34.2283978186668,32.6714261835195,1334700
2008-08-22,33.3874666146567,33.7454868302254,32.3633622770999,1414400
2008-08-29,33.6289221088774,34.1867675610425,32.4799269984479,1445900
2008-09-05,33.0877287597621,34.7862432708319,32.4382967408236,1257100
2008-09-12,33.5373355421041,34.0785288912194,32.413318586249,1722100
2008-09-19,34.4615272613626,36.6596048639236,31.347583991068,2824100
2008-09-26,33.0960548112869,34.61139618881,32.5798396167461,1603900
2008-10-03,30.4067401687597,33.0960548112869,30.2235670352129,2608000
2008-10-10,27.9172507628289,30.5399569931573,24.0622889068224,2938900
2008-10-17,26.8348640645982,29.9238291803183,22.4886651686254,3363400
2008-10-24,22.6135559414982,27.4676439804869,21.2231053368479,3792200
2008-10-31,25.3875360615357,25.638648266841,21.6782093876372,2935300
2008-11-07,26.4509321960394,27.0705488413407,25.1279669263419,1836500
2008-11-14,25.0191153535187,27.0370560497028,23.8803604378298,1873000
2008-11-21,24.4748574894027,26.0657650922034,23.3109829799853,3169600
2008-11-28,27.9999738092927,27.9999738092927,24.6004554580449,1638200
2008-12-05,26.9114580810606,27.2045200078924,24.4916038852216,2902000
2008-12-12,26.9951900601554,28.3432749235813,25.1949525096178,3632800
2008-12-19,27.9999738092927,29.2475802978049,26.392319810673,2768500
2008-12-26,28.1171985800254,28.2093037570297,26.8528456956943,1274300
2009-01-02,29.9927949117484,30.2104980573948,27.5733593758048,1357600
2009-01-09,27.2463859974397,30.2021248594853,26.9365776747891,3166700
2009-01-16,25.4880144364495,27.4222231535388,24.5920822601354,3129600
2009-01-23,25.1279669263419,25.6052392071822,24.3157667291226,1926800
2009-01-30,25.9321207908922,27.1942292005722,25.0442349472472,1885300
2009-02-06,25.9657770151504,26.0246754076021,24.4175906992762,4045900
2009-02-13,24.5522155963087,25.9405348469568,24.0557862885013,2414300
2009-02-20,22.9872011683055,24.0137160081786,22.4655296923044,1664600
2009-02-27,23.609841317081,24.0137160081786,22.0868971694004,3144700
2009-03-06,21.4979132448831,23.4247320836612,20.9930698810111,2740500
2009-03-13,23.0713417289508,23.1807244577898,21.1276947780436,1817800
2009-03-20,24.8130513343093,25.6712850528917,22.8020919348858,2348400
2009-03-27,27.0091199671525,27.3540962657984,24.8509145865997,1408600
2009-04-03,27.6401741719925,27.9430801903157,25.4861758194719,1950600
2009-04-10,28.1870878161872,28.2291580965099,26.2686830334736,1275200
2009-04-17,24.9645043434709,27.9262520781867,24.4849031477925,2641600
2009-04-24,25.4777617634074,25.6376288286335,24.0726144006303,2235700
2009-05-01,25.9508694120139,26.7457152004561,25.0122749171512,1816400
2009-05-08,26.5174084314355,26.9993893882568,25.7817532868134,1696700
2009-05-15,25.9170461869738,26.4497619813553,25.3758745863322,1407800
2009-05-22,25.9424136057538,26.7372593941961,25.7064120530366,1239100
2009-05-29,26.2214552123346,26.9740219694768,25.4266094238924,1246900
2009-06-05,27.4306355075181,28.1662906521402,26.6780687503759,1714200
2009-06-12,28.7666528966019,28.9695922468424,27.0924032571171,1461500
2009-06-19,27.8280584017392,28.7666528966019,27.6843096953188,1174600
2009-06-26,28.2085696834403,28.2846719397805,26.9824777757368,1209400
2009-07-03,28.1324674271001,29.2993686909834,27.9718071081596,720000
2009-07-10,27.6589422765387,28.3100393585606,27.1769613197173,871100
2009-07-17,29.7137031977246,30.5254605986869,27.3629890574379,1323700
2009-07-24,30.5170047924269,30.8552370428278,29.6967915852045,1001600
2009-07-31,29.6533251428126,30.4855204074161,29.2796864525824,1258200
2009-08-07,29.9929966793854,30.6468643872882,29.6957840848842,769100
2009-08-14,30.1033899287716,30.7487658482601,29.3646043367256,694500
2009-08-21,30.2562421202294,30.5704382915593,29.1268342611246,596700
2009-08-28,29.5259483165977,30.5279793494877,29.2711946641681,476800
2009-09-04,29.1268342611246,29.5938826239123,28.5154254952934,728400
2009-09-11,30.1288652940146,30.2817174854724,29.033424588567,748600
2009-09-18,31.1648634805619,31.8187311884647,29.8146691226847,1029700
2009-09-25,30.8931262513036,32.3452220701527,30.7487658482601,939000
2009-10-02,30.6723397525312,31.9715833799225,30.5959136568023,805000
2009-10-09,32.2518123975951,32.2518123975951,30.5534547147307,822000
2009-10-16,31.8357147652933,33.0840076621987,30.9950277122754,1424700
2009-10-23,31.563977536035,32.0819766293087,30.9355851933752,1077600
2009-10-30,30.1063270939409,31.939479267602,29.8761172860858,1333200
2009-11-06,30.2171688532786,30.4900101070328,29.4327502487352,1196400
2009-11-13,30.6946410473485,30.9248508552036,30.2256951424584,877500
2009-11-20,30.9845348794623,31.6069539895891,30.481483817853,1063500
2009-11-27,30.6179044447301,31.8030586407249,30.3621157693355,255300
2009-12-04,31.1465343738789,31.5387436761505,30.200116274919,812100
2009-12-11,31.189165819778,31.6240065679487,30.7287462040677,607800
2009-12-18,30.6349570230897,31.5302173869707,30.5582204204714,890400
2009-12-25,31.0101137470018,31.0697977712605,30.6605358906292,679900
2010-01-01,30.4729575286732,31.1358765124041,30.4729575286732,561500
2010-01-08,31.3596916033743,31.4534807843523,30.6008518663704,1007200
2010-01-15,30.8992719876641,31.5557962545102,30.7543250716072,686200
2010-01-22,30.7457987824274,31.4534807843523,30.6349570230897,537800
2010-01-29,30.6264307339099,31.1976921089578,30.4729575286732,729000
2010-02-05,29.9935791479053,31.0895477836267,29.5055306148107,769100
2010-02-12,32.5708178928438,32.9561193663396,29.8565830684402,1935900
2010-02-19,32.6393159325764,32.887621326607,31.885837495518,1068100
2010-02-26,32.9903683862059,33.0931154458048,32.1598296544483,775400
2010-03-05,34.5486987901222,34.5658233000553,32.827685541841,794300
2010-03-12,34.591510064955,34.9596870285177,34.2490198662921,1269100
2010-03-19,34.0863370219272,34.9768115384508,33.9835899623284,893200
2010-03-26,33.4955414292337,34.2490198662921,33.2129870153368,908600
2010-04-02,33.8209071179635,34.112023786827,33.0759909358716,419500
2010-04-09,35.0367473232168,35.0453095781834,33.5811639788994,734800
2010-04-16,36.6892625317654,37.982163031718,34.934000263618,1534400
2010-04-23,36.9033189059298,36.9760980731456,36.1755272337711,878700
2010-04-30,36.9802004064417,37.9596945621885,36.5162294905616,1272900
2010-05-07,34.6603458270413,37.9081422382018,34.0674941011945,1425400
2010-05-14,35.0641723649369,36.8083593264861,34.9009233389791,1183200
2010-05-21,33.2598410254033,35.9233777647148,32.5982528675743,1385800
2010-05-28,34.2479272351479,34.4799126930879,32.0827296277075,1164300
2010-06-04,33.0450396754588,34.4885047470857,32.9161588654921,975000
2010-06-11,33.62070729331,33.6464834553033,32.142874005692,793700
2010-06-18,34.8150027990013,35.1415008509169,33.4059059433655,828700
2010-06-25,33.2856171873966,35.3305260388681,32.649805191561,916200
2010-07-02,32.6755813535543,33.9386132912278,31.7145601139027,926500
2010-07-09,33.7066278332878,33.8355086432545,31.9366647097453,510300
2010-07-16,34.2221510731546,35.1329087969192,33.3457615653811,677400
2010-07-23,36.6880705705172,36.8083593264861,33.6636675632989,999400
2010-07-30,37.1606335403951,37.6503806182685,36.5135363693875,1021500
2010-08-06,37.7645909000021,38.0053110476169,37.1865174272354,840900
2010-08-13,36.1080221422227,37.9630340324444,35.4609249712152,800800
2010-08-20,36.2892093501048,37.1865174272354,35.7197638396182,522800
2010-08-27,36.2460695387043,36.5480482185079,34.7793159510872,560100
2010-09-03,37.8336145982429,37.9104034625358,35.1589462914116,628600
2010-09-10,37.9716619947245,38.434983569166,37.4022164842379,352700
2010-09-17,39.0587852420173,39.7058824130249,38.2908965990883,1240200
2010-09-24,38.6791549016928,39.3952757709412,37.9371501456041,612300
2010-10-01,39.0674132042974,40.1631644138702,38.1442212403266,725600
2010-10-08,40.0682568287891,40.3357236594722,38.7395506376535,595900
2010-10-15,40.3443516217523,40.9396810190793,39.8266738849463,593500
2010-10-22,38.868970071855,41.0777284155609,38.3081525236485,1160700
2010-10-29,38.7222947130933,39.4384155823417,38.5669913920515,877100
2010-11-05,40.2118841928422,40.2811851565524,38.5833981718572,683000
2010-11-12,39.8567167538274,40.6450152160309,39.8307288924361,668500
2010-11-19,39.4842240738851,40.3244982588712,39.0424304302326,581200
2010-11-26,40.1512458495957,40.4284497044365,38.9384789846673,345600
2010-12-03,41.7711558763216,41.9444082855971,39.1463818757979,731600
2010-12-10,40.7662919025238,41.9010951832782,40.1599950962642,1102400
2010-12-17,40.8096050048426,41.1561098233936,40.3591487407263,931100
2010-12-24,41.4679641600895,41.9703961469884,40.7056535592773,498400
2010-12-31,41.2080855461763,41.8924325628145,41.0694836187559,483300
2011-01-07,41.0434957573645,41.8404568400318,40.7836171434513,597400
2011-01-14,41.987721387916,42.0310344902349,40.4977506681467,666200
2011-01-21,41.5892408465823,42.5681169589889,41.3206996122053,771400
2011-01-28,41.4159884373069,42.3948645497134,41.3161950495642,665500
2011-02-04,42.2580146129486,42.5014764255335,41.3276426862849,654600
2011-02-11,43.023180309644,43.5274940642841,42.1971491598024,724000
2011-02-18,43.0318753743791,43.3875035220478,42.5188665550038,1051500
2011-02-25,41.7710909877788,42.8927543386163,40.8233289316448,775100
2011-03-04,41.6841403404271,42.4927813607983,41.0667907442297,979400
2011-03-11,41.8580416351306,43.2666421222288,41.1711315210518,962800
2011-03-18,41.7363107288381,42.2232343540079,40.4320510185619,957800
2011-03-25,42.5797320081501,43.2579470574937,42.0058577356285,556700
2011-04-01,44.1535387252167,44.4404758614774,42.1884540950672,718800
2011-04-08,43.7883460063393,45.1013007813507,43.5883595174303,557100
2011-04-15,43.6753101647821,43.9448571715725,42.7362431733832,388600
2011-04-22,44.666547544592,44.7882784508844,42.475391231328,551800
2011-04-29,45.7661976857654,46.0279681205744,44.3002832508353,747500
2011-05-06,44.7278416276899,46.2635615119024,44.5271509610031,846700
2011-05-13,45.6440381495213,46.3159155988642,44.6754875407281,929800
2011-05-20,45.8272774538875,46.9441646424057,45.0855945552621,1251100
2011-05-27,45.5742327002389,45.7574720046051,44.6493104972472,729300
2011-06-03,44.6318591349266,46.6649428452762,44.5969564102854,1063700
2011-06-10,43.9774330479042,44.8203338479891,43.8639991928204,828000
2011-06-17,44.0472384971866,45.3211879465902,43.6807598884541,1219200
2011-06-24,44.1606723522705,44.8674525262547,43.5673260333702,724900
2011-07-01,46.455526497429,46.542783309032,43.8290964681792,988400
2011-07-08,47.301917569978,47.6945732221914,46.0977735698568,722800
2011-07-15,45.9494369901317,47.2059350772147,45.5306042944374,677100
2011-07-22,46.281012874223,46.9354389612454,43.9774330479042,1155484
2011-07-29,44.7365673088502,46.455526497429,43.6323934634212,1216300
2011-08-05,41.8359201434772,45.2711276625897,41.0384612551118,1465300
2011-08-12,41.8884998504024,42.2828476523413,39.3997270559433,1878400
2011-08-19,40.8894854188237,42.6158524628675,39.8904709872451,1497300
2011-08-26,42.5019297645296,42.6807007680752,40.7492728670232,1244600
2011-09-02,42.0550022556655,44.7979103002629,41.8096302900146,1016300
2011-09-09,42.1338718160532,42.9225674199311,40.8544322808736,1336900
2011-09-16,43.1416495321194,43.8865287135596,41.2663066517876,1056500
2011-09-23,40.4425579099596,43.0627799717316,39.6976787285194,1193700
2011-09-30,39.1455918058049,42.475639911067,39.1368285213173,1013000
2011-10-07,40.267292220209,41.0822776775494,36.7891446071076,1141300
2011-10-14,42.624615747355,42.9926736958314,40.9858815481866,938800
2011-10-21,42.4931664800421,42.7998814371057,41.1174184483444,656300
2011-10-28,43.0540166872441,43.6849731703464,42.0024225487403,923000
2011-11-04,42.7297751612054,43.1504128166069,40.2935820736716,1136900
2011-11-11,42.7827125532117,43.0468033714414,41.1541525074619,1129600
2011-11-18,42.2809399985753,43.2756820805738,41.7879704712132,991000
2011-11-25,40.9428798528781,42.3161521076726,40.9164707710552,878800
2011-12-02,44.8514239626777,45.5556661446236,41.8671977166821,1432000
2011-12-09,44.6577573626426,45.6877115537385,43.7334394988387,998600
2011-12-16,45.0538935899872,45.1947420263764,42.9587730986982,1534100
2011-12-23,46.2863174083924,46.4183628175073,43.8830909625022,813300
2011-12-30,45.9253932901452,46.5416051993478,45.4500298173317,456200
2012-01-06,45.6436964173668,47.0433777539843,45.2827722991196,908000
2012-01-13,45.3179844082169,46.1366659447289,45.0010754263412,956900
2012-01-20,45.3796055991371,46.1014538356317,45.1683329445534,671900
2012-01-27,46.0222265901628,46.2599083265695,44.9042421263237,968700
2012-02-03,47.2949521635899,47.560157502825,45.3147522973013,1001200
2012-02-10,46.8883039767628,47.577837858774,45.2175103395817,910100
2012-02-17,46.6938200613237,47.3568334094114,45.9070442215929,801800
2012-02-24,47.0562673582783,47.3833539433349,45.6595192383069,714300
2012-03-02,47.0297468243548,47.2684316296664,46.1457290269045,1551800
2012-03-09,47.3303128754879,47.64855928257,45.9335647555165,1390700
2012-03-16,48.3911342324282,48.5502574359693,47.0916280701763,1372600
2012-03-23,47.9933262235756,48.5856181478673,47.0562673582783,870000
2012-03-30,48.4176547663517,48.6209788597653,48.1436092491422,1031400
2012-04-06,48.0375271134481,49.0541475805159,47.736961062315,846600
2012-04-13,47.807682486111,48.3027324526832,45.995446001338,1252000
2012-04-20,48.5237369020458,48.6651797496378,47.4982762570034,1020700
2012-04-27,48.6325546989601,48.9165922515001,47.5319091828676,1462400
2012-05-04,47.6828041326545,49.1651251099726,47.5851662239688,1344000
2012-05-11,47.3898904065976,48.0289748998126,46.7685582604163,952000
2012-05-18,44.1145823788706,46.9105770366863,44.0524491642524,1049000
2012-05-25,44.9223141689062,45.6324080502562,44.1500870729381,1112900
2012-06-01,44.6116480958156,45.8188076941106,43.8127924792968,3360400
2012-06-08,46.5111492284269,46.6265394841463,44.1057062053537,940100
2012-06-15,46.3957589727075,46.9815864248213,45.8986932557625,856300
2012-06-22,45.9075694292794,47.2745001508782,45.2684849360644,1088300
2012-06-29,45.3128658036487,45.8898170822456,44.4296865387196,1024700
2012-07-06,45.6767889178406,46.8129391280007,45.1974755479294,783600
2012-07-13,44.2388488081068,44.5672672282312,42.2150812462592,2100600
2012-07-20,44.4785054930624,45.0998376392437,43.6263928354424,839700
2012-07-27,44.9578188629737,46.1205975936844,42.9162989540924,1556400
2012-08-03,44.4341246254781,45.4637607534356,42.6766422691367,1153500
2012-08-10,44.4778812347052,44.9325559075795,44.1391040274655,833400
2012-08-17,45.128690080192,45.351569821797,43.9483189686516,733900
2012-08-24,45.306993873476,45.3872305804539,44.5759483210115,740000
2012-08-31,45.1554356491846,45.5922799427305,44.7542521142955,900600
2012-09-07,45.9043115809776,46.1806824605679,44.6383546486609,1469900
2012-09-14,46.7690849784052,46.8849824440398,44.8701495799301,868400
2012-09-21,46.9563039613535,47.419893823892,46.2252584088889,1262600
2012-09-28,46.10044575359,47.2772507892647,45.5477039944095,1268300
2012-10-05,46.8671520647114,47.2505052202721,45.5031280460885,1098000
2012-10-12,45.6725166497083,47.0008799096745,45.5655343737379,722900
2012-10-19,46.6621027024348,47.3039963582574,45.4050609597823,638600
2012-10-26,46.0469546156048,46.9384735820251,45.5120432357527,691300
2012-11-02,44.1212736481371,47.5714520481834,43.8359875788827,1243000
2012-11-09,43.0003595105807,45.4449863632231,42.9824501563489,1502500
2012-11-16,41.3616535983699,43.2958638554056,40.4661858867793,2412200
2012-11-23,42.6421724259445,42.6511271030604,41.5497018178039,912600
2012-11-30,42.686945811524,43.0899062817398,41.827296808397,1364700
2012-12-07,42.7138098428717,43.0451328961603,41.737750037238,1151100
2012-12-14,42.0153450278311,43.071996927508,41.9437076109038,1139800
2012-12-21,42.7675379055672,43.4749573977237,42.0690730905265,2045200
2012-12-28,42.3914414666991,43.071996927508,42.2571213099605,554400
2013-01-04,44.4331078491257,44.4420625262416,42.1228011532219,1303300
2013-01-11,45.7046719995843,46.4479102002045,43.9674646390986,1344700
2013-01-18,46.8598253475362,46.8598253475362,45.4449863632231,783200
2013-01-25,46.591185034059,46.9135534102317,46.3225447205819,843500
2013-02-01,46.9993649722254,47.0173620486076,45.703575472704,1574800
2013-02-08,47.2513240415768,48.0791895551599,46.6124278300072,1377400
2013-02-15,47.7912363330441,47.9712070968665,46.6844161355362,878700
2013-02-22,47.5302787255015,48.457128159187,46.7438064875976,984400
2013-03-01,48.1151837079244,48.5831076938627,46.8733854375497,1217800
2013-03-08,49.716923505944,49.716923505944,47.6652567983684,766800
2013-03-15,50.1218577245444,50.1578518773089,49.4469673602103,1268400
2013-03-22,50.607778786865,51.1836852310967,49.6359366622239,911700
2013-03-29,51.6066165260794,51.7145989843728,50.0588679572066,741800
2013-04-05,50.4728007139981,51.6696062934172,50.1668504155,947900
2013-04-12,51.2016823074789,51.9125668245775,50.2928299501757,708500
2013-04-19,49.5639483566949,51.0037144672743,48.9565470287942,894900
2013-04-26,50.0634468593835,51.374008295493,49.2669965963879,871200
2013-05-03,50.6057481432908,51.0395891704168,49.7290277343072,1648700
2013-05-10,51.0576658798803,51.5095836164698,50.3978659844597,1285400
2013-05-17,51.5818904543241,51.6632356469102,50.3797892749961,961400
2013-05-24,50.813630302122,51.9886164172547,50.4972878865094,643100
2013-05-31,51.2655480387115,51.8349643868143,50.6419919457653,783000
2013-06-07,51.5186219712016,51.7988109678871,50.3165207918736,826200
2013-06-14,51.5547753901288,52.2055369308176,50.3165207918736,573300
2013-06-21,49.738066089039,52.0428465456454,49.3403784808403,960800
2013-06-28,49.9007564742112,50.3707509202643,48.924614163178,1122800
2013-07-05,51.1751644913936,51.1842028461254,50.0363317951881,436400
2013-07-12,53.9137859751259,53.9228243298577,51.15708778193,744000
2013-07-19,53.8505174920034,54.166859907616,53.4438819126201,804400
2013-07-26,52.3682273159898,54.3268387863687,52.01573148145,872300
2013-08-02,54.8976160643761,55.1336177207375,52.3651367518825,1801700
2013-08-09,54.5708445401834,55.0156168925568,53.5179140733402,677800
2013-08-16,53.8174546371835,54.9883859322074,53.5814529808221,476800
2013-08-23,54.3166889102557,54.4982286459183,53.3454513244607,551100
2013-08-30,53.3817592715932,54.8431541436773,53.0368337738342,695200
2013-09-06,53.1094496680993,54.2622269895569,52.1019041351718,785200
2013-09-13,53.5632990072558,54.407458778087,52.9188329456535,828200
2013-09-20,54.6797683815809,54.9793089454243,53.7085307957859,1088100
2013-09-27,54.1442261613762,55.1426947075206,54.12607218781,938900
2013-10-04,54.5799215269665,55.9687005047855,53.6903768222197,1430500
2013-10-11,55.7780837823398,55.8325457030386,53.7266847693522,1142500
2013-10-18,57.3574794826046,57.4482493504359,55.1790026546531,644300
2013-10-25,58.3468710419659,58.4194869362309,57.1940937205082,576500
2013-11-01,57.9928685574237,58.7281044868574,56.4679347778577,1093400
2013-11-08,58.5471667673281,59.0210115411649,57.4719036266986,835800
2013-11-15,59.1759223326115,59.4401819180205,58.2646823829255,728100
2013-11-22,58.5016047698438,59.3217207245613,58.0915467924851,1686500
2013-11-29,59.1576975336178,59.4584067170142,58.0642095939945,1297700
2013-12-06,58.94811234519,59.8939794129641,57.4992408251892,889400
2013-12-13,58.0459847950008,58.9572247446869,57.5356904231766,887700
2013-12-20,59.5586431114796,59.6497671064482,58.1553335889631,1108700
2013-12-27,60.7979294430527,61.1442006239334,59.4492943175173,501000
2014-01-03,60.9163906365118,61.9734289781477,60.5883442546249,836900
2014-01-10,62.0098785761351,62.5839597444373,60.3696466667002,2081300
2014-01-17,61.2717742168894,62.6750837394059,61.0530766289648,3814000
2014-01-24,58.7567519557559,61.7182817922356,58.7203023577685,1409400
2014-01-31,58.3663560643778,59.1165192614435,57.4881162239107,1681400
2014-02-07,58.0827577825603,58.5493226978085,55.9694931664363,1806700
2014-02-14,59.2537442365165,59.4092658749325,57.5155612189253,898800
2014-02-21,59.1348159247866,59.9032757851953,58.7871793212683,823100
2014-02-28,60.534510670531,61.0559655758084,58.7762013232625,1018700
2014-03-07,60.1319840769836,60.7160135708942,59.555639181677,952900
2014-03-14,59.0158876130566,60.2509123887135,58.5401743661369,832400
2014-03-21,59.2354475731734,60.1557697393296,58.9792942863705,905700
2014-03-28,58.7963276529398,59.6654191617354,57.7352126623588,702300
2014-04-04,60.4155823588011,61.7603871145164,58.9655717888632,1159200
2014-04-11,59.2080025781588,61.6140138077719,59.0433326080712,909600
2014-04-18,60.9004439373923,61.1931905508814,59.0890742664289,993300
2014-04-25,61.4218988426697,62.0073920696478,60.5894006605602,940900
2014-05-02,61.2563865149872,62.2117950629115,60.925668171475,1211400
2014-05-09,61.1737069291092,61.7892105128681,60.2963846567365,1018600
2014-05-16,60.7603089997189,62.3220345107489,60.1953318295522,831000
2014-05-23,60.6225096899221,61.7157175476431,60.0253793474695,765400
2014-05-30,61.1737069291092,61.238013273681,60.1172455540007,703700
2014-06-06,61.6514112030713,61.8259569954805,60.4479638975129,714100
2014-06-13,61.0083477573531,62.0831823737678,59.6671011419979,689500
2014-06-20,61.2104534117216,61.6422245824182,60.0896856920413,933200
2014-06-27,61.5595449965401,61.5595449965401,60.4387772768598,1051800
2014-07-04,61.5227985139276,62.4690204411987,61.1369604464967,673300
2014-07-11,60.9532280334344,61.4768654106621,60.1356187953069,838100
2014-07-18,60.6776294138408,61.6146647204588,59.6671011419979,1003685
2014-07-25,58.3350411472959,60.3377244496755,58.0961890103148,1677800
2014-08-01,56.4077593959294,58.3547636872007,55.8910189205209,1696600
2014-08-08,57.5427429401302,57.5981079910668,55.8448813780738,1324600
2014-08-15,58.4101287381373,58.7773835760169,56.9964744375555,1023800
2014-08-22,58.7054090097993,59.4159271634859,58.447038772095,979600
2014-08-29,59.1944669597395,59.268287027655,58.4839488060528,615800
2014-09-05,60.1633553511304,60.1633553511304,58.9776205102377,811300
2014-09-12,57.8564782287711,60.3202229954508,57.6534730420034,977800
2014-09-19,56.4354419213977,58.1702135174119,56.4169869044189,1683200
2014-09-26,56.6384471081654,56.7464089574918,55.8910189205209,1563148
2014-10-03,55.4665535300068,57.0629124986795,54.3592525112744,1657569
2014-10-10,53.0581738142637,55.9648389884364,53.0028087633271,1610650
2014-10-17,54.1654748329962,54.5068926471054,51.2957196927812,3507336
2014-10-24,57.136732566595,57.5519704486196,53.9440146292497,1717009
2014-10-31,57.432012838257,57.8472507202816,53.8517395443553,2275754
2014-11-07,60.0376666104342,60.1118215174719,56.8582749711909,1964904
2014-11-14,60.0932827907125,61.0572965822032,59.880087432979,1209154
2014-11-21,60.3435556019649,61.0016804019249,59.6576227118658,1266193
2014-11-28,60.4825960526607,60.8090630308943,60.1711454431021,576954
2014-12-05,61.4188017540122,62.0120410103142,59.815201889321,1125669
2014-12-12,59.9171648864979,61.7154213821632,59.8708180695993,861637
2014-12-19,62.2252363680477,62.3550074553637,58.7677638274128,1507028
2014-12-26,62.9018998947671,63.1892501595384,61.9471554666561,627108
2015-01-02,61.7803069258212,63.6527183285243,61.0944667293559,679413
2015-01-09,60.6865220470145,61.8266537427198,58.8419187344506,1672015
2015-01-16,59.7595857090427,61.6690745652646,58.7399557372737,1169666
2015-01-23,59.1014609090827,60.3157475118257,58.9994979119058,1010066
2015-01-30,58.7558082818901,59.5937139617143,57.1544774271151,1801539
2015-02-06,59.8916359812073,62.0050203069859,58.386664279612,2585905
2015-02-13,60.1057674327179,60.2733485686827,58.8209787236542,2187769
2015-02-20,61.6046875932922,61.6977882243837,59.7054347190241,1121034
2015-02-27,61.3253857000175,61.8188190448028,60.9343630494329,1155246
2015-03-06,59.8357756025523,61.9677800545493,59.5099233937318,1193632
2015-03-13,58.746498218781,60.2361083162461,58.3834057575238,1615034
2015-03-20,58.8675290392,60.0871473064996,58.2530648739956,1894190
2015-03-27,58.8209787236542,59.5006133306227,58.3834057575238,1571349
2015-04-03,58.7930485343268,59.5657837723868,58.4858164517246,1363213
2015-04-10,59.1095906800381,59.1840711849114,58.4299560730696,1242450
2015-04-17,58.5044365779429,59.3330321946579,57.7037711505554,1603079
2015-04-24,58.9233894178549,59.0909705538198,58.1320340535766,1277975
2015-05-01,59.8968670534559,60.7198060543465,57.9797932445631,2775440
2015-05-08,59.0645764730098,60.7665639521244,58.5455638076754,3444881
2015-05-15,60.972298702347,61.1780334525697,58.3351532676749,2465493
2015-05-22,60.3176881334568,62.0103240330158,60.158711281012,1444781
2015-05-29,59.6350228258998,60.6449934179019,59.5228038712329,1046849
2015-06-05,60.1119533832341,60.4392586676792,59.2048501663434,2157903
2015-06-12,60.3925007699014,60.6169386792352,59.4386396552328,1437946
2015-06-19,61.0564629183472,61.5614482143482,59.4947491325662,1887804
2015-06-26,60.2989849743456,61.3837682027923,59.8781638943448,1432851
2015-07-03,59.653725985011,60.3737976107902,59.4386396552328,1373605
2015-07-10,59.5508586098996,60.2709302356789,59.0739280525653,1377460
2015-07-17,59.784648098789,60.3644460312346,59.5041007121218,1192571
2015-07-24,57.7460037556737,59.9342733716782,57.5122142667844,1191352
2015-07-31,63.6835467969122,64.5478167932709,57.0512139987679,3162166
2015-08-07,64.6229707059978,65.1396538559949,62.5092669105552,1413575
2015-08-14,65.6375485278102,65.8536160268999,63.8150661441842,1198505
2015-08-21,63.5144504932768,66.0790777650805,62.978978865098,1196856
2015-08-28,63.6083928841853,63.965280027247,60.7431499614743,1601725
2015-09-04,63.1950463641877,63.6835467969122,61.5322660451062,1251854
2015-09-11,63.3171714723688,64.4632686414532,62.0771319123758,1435619
2015-09-18,63.0823154950974,65.1772308123583,62.6689689750997,1539849
2015-09-25,61.5604487623788,64.2002299469093,60.9122462651097,1411755
2015-10-02,63.8620373396385,63.8808258178202,59.7661490960253,1761332
2015-10-09,66.0039238523536,66.4172703723513,63.5144504932768,1237865
2015-10-16,65.6093658105377,66.5863666759867,64.7732785314515,1073701
2015-10-23,67.0748671087112,67.7982235187071,65.327538637812,1127324
2015-10-30,69.104022752336,70.6916491586907,65.4120867896297,2186954
2015-11-06,69.0948667189908,71.641360578413,68.5478421121519,1663009
2015-11-13,67.4537928984742,69.4343992335804,66.5578043183071,1554671
2015-11-20,70.0663069690667,70.3115248962703,67.104828925146,846598
2015-11-27,70.7453719982459,71.264102228869,68.9816892141275,795547
2015-12-04,70.1228957214983,71.1980820176988,68.7741971218783,833037
2015-12-11,68.7176083694467,70.3586821899633,68.1328579276534,1049150
2015-12-18,67.0671030901915,69.7456373719542,67.0482401727143,1582291
2015-12-25,69.1325925539452,69.4532621510576,67.1614176775775,641993
2016-01-01,68.5195477359361,70.2360732263615,68.4912533597203,476909
2016-01-08,65.9070336653436,68.1045635514376,65.6429528206628,1888504
2016-01-15,64.1999396336568,66.8879053741581,63.1907735486265,1762399
2016-01-22,64.3697058909517,64.9355934152677,62.5588658131403,1050579
2016-01-29,69.0638385457311,69.0733123233094,63.1332537817218,2620715
2016-02-05,67.3775061367955,70.73122339951,66.771184371785,1691049
2016-02-12,71.3375451645206,71.6691273797607,66.2027577170876,2299654
2016-02-19,69.0448909905745,72.1854482577775,67.7943523502403,1722064
2016-02-26,69.4712109815975,71.0059629492804,68.2585674515765,1240683
2016-03-04,72.0007095950008,72.0954473707837,69.1396287663574,1255062
2016-03-11,71.7922864882785,72.7680855788423,71.1385958353765,1272133
2016-03-18,72.8438757994686,73.6680944487798,70.1400596786248,1756191
2016-03-25,73.3175646783831,74.7386313151265,72.6022944712222,914381
2016-04-01,74.9281068666923,74.9944233097403,73.3080909008048,1806288
2016-04-08,73.2891433456482,75.4775859662331,72.6259789151679,1043658
2016-04-15,75.079687307945,75.1270561958364,72.824928244312,1004107
2016-04-22,75.4965335213897,76.0933815088219,74.3028375465252,1172021
2016-04-29,72.2740608083456,76.4203095599822,71.9982782078927,2157862
2016-05-06,72.5403336639553,73.5388568724916,71.3325960688684,2418893
2016-05-13,73.1965060581363,74.1569902872998,71.945974611255,1237221
2016-05-20,71.6369079038509,73.976305135279,70.5242677571961,1509600
2016-05-27,73.3581717204707,73.4057204446868,71.0663232132587,1038558
2016-06-03,73.41523018953,73.976305135279,72.340629022248,830014
2016-06-10,74.3662046738503,74.6990457433624,73.0253306509586,881369
2016-06-17,72.6069018778577,74.2520877357318,71.9507294836766,1357788
2016-06-24,72.9872916715858,76.2110951734317,72.7875870298785,1347691
2016-07-01,75.288649923641,75.8211956348604,70.6288749504714,1308089
2016-07-08,75.8782541039196,75.9353125729788,73.9858148801222,687215
2016-07-15,76.0018807868813,77.1905988922817,75.9448223178221,774948
2016-07-22,76.5249167532575,76.82922858824,75.336198647857,645134
2016-07-29,74.6261614887949,77.7952438134662,73.6000279047523,1711047
2016-08-05,73.1084383272807,74.5879797740398,72.4879854625107,1313327
2016-08-12,72.144350029715,74.0629811961575,71.9248051698733,763565
2016-08-19,73.2898014723673,73.4902554748314,71.6002605944552,898920
2016-08-26,74.9029789207692,75.4757046420953,72.927075182194,1238561
2016-09-02,75.5616135002942,75.5807043576718,73.9675269092698,1104811
2016-09-09,73.9388906232035,76.8884280880331,73.9102543371372,1162422
2016-09-16,74.0725266248463,74.9888877789681,73.4998009035202,1052090
2016-09-23,75.2084326388098,75.8957035044012,74.3016169133768,1365774
2016-09-30,73.8911634797597,75.3802503552076,73.4711646174539,1715146
2016-10-07,72.2016226018476,74.1450718828809,71.772078310853,1166891
2016-10-14,72.5738943207096,73.0416203264593,71.1611708747718,798260
2016-10-21,73.6525277625405,73.8911634797597,71.9629868846284,696397
2016-10-28,69.7007202853902,74.5497980592847,69.2807214230843,1156523
2016-11-04,68.4692317145006,70.8471016858206,67.424119509364,1711736
2016-11-11,68.8911118707025,72.9373260960938,67.8364114801977,2231973
2016-11-18,70.6169852369832,71.201864544445,69.3129920269045,1141160
2016-11-25,72.9373260960938,73.5030290328192,70.3197514905682,952902
2016-12-02,71.288158212759,74.0974965256492,69.4759911781643,1852878
2016-12-09,71.671685627488,72.0839775983218,68.8815236853343,2085892
2016-12-16,69.9266358904709,72.4866813837872,69.7348721831064,1903584
2016-12-23,70.5786324955103,71.1059826907627,69.591049402583,1284290
2016-12-30,70.4252215296187,71.6141565152787,70.2335537041078,772833
2017-01-06,70.4731624564598,71.6429210713834,69.3705211391138,1395710
2017-01-13,70.4731624564598,71.3456873249684,69.3801093244821,1101972
2017-01-20,68.6897599779698,70.7895725736113,68.6034663096558,1253187
2017-01-27,70.4156333442505,70.8950426126617,68.4979962706053,1514942
2017-02-03,71.0528403644903,71.3899031745685,69.4349388761148,2062882
2017-02-10,72.0255073307161,73.3833889370312,69.7623713201908,2610829
2017-02-17,71.1684047565171,72.6514811208613,70.1668466922847,1980437
2017-02-24,71.61140159262,72.0447680627205,70.918015240459,876290
2017-03-03,73.2293030809955,73.4219104010401,71.2165565865283,1639171
2017-03-10,73.9515805311631,74.15381821721,72.4010916048032,1967263
2017-03-17,74.2308611452279,74.8183134713642,72.5648078268412,1306384
2017-03-24,73.7878643091251,74.9916600594045,73.498953329058,990517
2017-03-31,74.1441878512078,74.5197721252949,73.007804662944,962365
2017-04-07,73.3448674730223,74.5968150533128,72.6996329508725,1625028
2017-04-14,72.9981742969418,74.1249271192033,72.9572452414323,907835
2017-04-21,75.1072244514313,75.7331982415766,73.0752172249597,1222053
2017-04-28,77.3318389979476,77.553337415999,74.7509009093486,1725103
2017-05-05,79.1989257536788,79.4503202195066,76.2788823429095,2711278
2017-05-12,79.7017146853344,80.2915247782381,79.0152144132661,1522692
2017-05-19,79.6340315599192,80.2335106707394,78.4350733382789,1344399
2017-05-26,81.5775041611266,81.8288019367752,79.3342920045091,991396
2017-06-02,83.4726316727517,83.8593923894098,81.0263701398887,943184
2017-06-09,82.8151384544328,84.2074770344022,82.0512860390329,1321571
2017-06-16,83.1052089919264,83.8980684610757,82.0609550569493,1279918
2017-06-23,83.927075514825,85.0245090483426,83.0858709560935,1224756
2017-06-30,83.9850896223238,84.6909279302249,82.9360011783885,1091984
2017-07-07,85.1743788260477,85.6191536502046,83.5789908698327,1000586
2017-07-14,86.4700272268526,86.9921541943411,84.5845687331439,1153562
2017-07-21,86.5473793701842,87.7850136634904,86.054259456445,1542738
2017-07-28,79.8703658764459,87.293623062144,78.4342324601278,2530180
2017-08-04,79.9188838972675,81.025094771999,78.2983820018275,2264906
2017-08-11,79.7054046056526,80.4912995069202,78.9921896995757,1003029
2017-08-18,79.7151082098169,81.3453137094212,79.2211947578535,981521
2017-08-25,79.9479947097604,80.277917251347,78.5506757100996,1007027
2017-09-01,81.3938317302428,81.5102749802145,79.0746703349724,1125252
2017-09-08,81.3356101052569,81.6849398551721,79.8801665166519,881274
2017-09-15,82.1992308758806,82.9075939798753,81.5102749802145,1215144
2017-09-22,83.1792948964761,84.1884697295644,82.2283416883735,1015193
2017-09-29,83.7518075421704,84.9162400418878,82.8202615423965,1142215
2017-10-06,85.9545256874691,86.2165229999055,83.9749904379496,1037440
2017-10-13,86.2068193957412,86.7211104164497,85.5760851250609,842682
2017-10-20,86.5561491456564,86.7211104164497,85.3626058334461,895223
2017-10-27,85.3237914167888,87.0170703434611,83.3442561672693,1283556
2017-11-03,84.6731863223749,85.8224198151331,83.6935859171845,1489571
2017-11-10,82.6961151441552,84.8095360588038,82.0241057288982,1212294
2017-11-17,83.416820893851,84.2446585793125,82.4136764044095,929523
2017-11-24,84.0011769071179,84.5563151197215,82.881161215023,712904
2017-12-01,85.3159779369685,86.6697360343701,84.1180481097713,1196163
2017-12-08,85.6081559436019,86.8353035714624,85.0432784641106,1307661
2017-12-15,84.712143389926,85.5789381429386,83.4655172282899,1837580
2017-12-22,83.6603025660456,85.5984166767141,83.2025570223198,1236394
2017-12-29,84.0303947077813,84.7316219237016,82.8422041474719,600953
2018-01-05,84.6439685217115,85.6373737442653,83.5629098971677,983010
2018-01-12,84.3030941806392,85.471806207173,82.9395968163497,1275574
2018-01-19,86.2996438926344,86.3872972946245,83.7674345018112,902683
2018-01-26,86.8158250376869,87.166438645647,84.0986669686646,1327758
2018-02-02,83.8678492422139,86.9034784396769,83.6137042445102,1534911
2018-02-09,80.3098192743624,84.0633453942936,78.1691364090891,1725886
2018-02-16,89.7620582274184,90.2410238000138,79.7526552409351,2570511
2018-02-23,88.9409743886834,90.2019245695978,87.9048447826607,1159358
2018-03-02,87.6604745925611,89.4199399612788,86.3115511432108,1354312
2018-03-09,88.8236766974356,89.0875965027433,87.2694822884015,1376870
2018-03-16,88.1198905499485,90.0259780327261,87.4161044024614,1357729
2018-03-23,84.8160055798006,88.452234008484,84.7378071189687,1133567
2018-03-30,87.8070967066209,88.3056118944242,85.1092498079203,1013496
2018-04-06,86.5070472952905,88.8041270822276,84.8942040406325,1436217
2018-04-13,90.6613405269853,91.2282793680165,86.5999079675284,1663662
2018-04-20,92.3132830120592,94.2193704948368,90.866611486669,1433898
2018-04-27,91.3553518668684,93.2809889648539,89.8109322654383,1714592
2018-05-04,90.1823749543899,91.8831914774837,88.7943522746236,2866657
2018-05-11,92.4880790702679,92.5175057578499,89.6238814789519,1626151
2018-05-18,91.7720296724389,92.9000526964161,89.8396771878867,1656561
2018-05-25,92.2820922571938,93.1354661970722,91.5758517552255,764931
2018-06-01,90.9971268994459,92.6057858205959,90.4282109395269,797940
2018-06-08,91.8701186310456,92.694065883342,90.2811755905755,1548907
2018-06-15,93.1060395094902,93.5474398232204,91.642061802285,1991472
2018-06-22,90.8598023573965,93.2629818432609,90.575344377437,2013743
2018-06-29,91.5954695469468,92.3213278406365,89.6729259582553,1499106
2018-07-06,92.2820922571938,93.2139373639575,90.6930511277651,903693
2018-07-13,93.0569950301868,94.9795386188783,92.6450214040386,1027697
2018-07-20,93.9496045535079,94.6950806389189,91.379673838012,844125
2018-07-27,100.933538406306,101.061054052494,92.2526655696118,1411688
2018-08-03,102.449545731994,102.843203928851,98.030105231547,2049166
2018-08-10,100.75681548551,103.286069400315,100.540303477239,1445491
2018-08-17,101.130790772524,101.833470653913,98.4735979437402,1113122
2018-08-24,102.154302084352,102.48891155168,100.973327493781,763352
2018-08-31,103.049874482201,104.093068703872,102.124777719587,975283
2018-09-07,106.189298602134,107.950919033069,102.921935568223,1144622
2018-09-14,110.194770755153,110.38175839866,105.835006224963,1166870
2018-09-21,108.570930693118,110.529380222481,107.932220268718,1649139
2018-09-28,106.031835323392,109.702698009082,105.844847679885,1933218
2018-10-05,105.470872392871,107.468687741919,104.614665814707,1274530
2018-10-12,100.038389276246,106.140091327527,98.74915868154,1610183
2018-10-19,102.666057740266,104.407995261357,99.4479019809609,1363713
2018-10-26,98.7688415913828,103.074478119505,97.7354888246336,1900665
2018-11-02,102.496932672382,104.007725610617,93.8666514435132,2358953
2018-11-09,102.980781391163,104.471825402101,99.9789444419915,1798881
2018-11-16,104.945799657233,105.804877994661,99.9394465873972,1228030
2018-11-23,102.595677308868,105.311154812231,101.687226653198,736461
2018-11-30,102.743794263597,103.671993846565,100.403546378881,1341782
2018-12-07,98.517523822,104.183491063562,97.1153499838999,1094136
2018-12-14,99.0803682499697,99.9986933692887,96.9869819564682,949465
2018-12-21,92.3756074325759,99.386476623076,92.3361095779815,1650230
2018-12-28,91.5362780224456,92.7310881239252,88.5443155369223,1467566
2019-01-04,89.9267404477251,92.8890795423027,87.1520161624709,1835134
2019-01-11,93.5407941431097,93.629664315947,89.4476314714955,1554846
2019-01-18,96.4636353830929,96.7401203652534,92.5632222418991,1114456
2019-01-25,96.1674014736351,97.1153499838999,93.9258982254048,821904
2019-02-01,98.6415363580122,99.0676123061182,96.0538451416763,1288088
2019-02-08,100.464745066186,101.376349420274,97.6209358311538,1018417
2019-02-15,101.009725930043,102.565398577778,100.316113921498,1168611
2019-02-22,101.118722102814,103.05092698376,99.7215893427459,1472939
2019-03-01,99.8900379733924,101.666180152415,99.7661786861523,1571283
2019-03-08,99.5531407120993,101.336714448357,98.3046390967192,960334
2019-03-15,102.109596400735,102.634759778633,99.6522281418914,1087688
2019-03-22,102.882478353113,104.715595804267,101.911421541151,910190
2019-03-29,105.41911655579,105.706470102187,102.082446444972,1073532
2019-04-05,107.747671155904,107.965663501447,105.240759182165,955298
2019-04-12,109.30334380364,109.684830408339,106.538804512441,914027
2019-04-19,107.222507778006,109.491609920245,106.320812166898,753188
2019-04-26,110.403214274332,110.631115362854,107.262142749923,810188
2019-05-03,113.176123086299,113.981328705095,109.279325523732,1406766
2019-05-10,112.927602833585,114.836238374434,111.51829418449,1076331
2019-05-17,113.106537415539,113.822275743358,110.6312756985,779724
2019-05-24,112.261568556309,113.305353617711,111.376339416139,716018
2019-05-31,112.599556100001,113.056833364996,110.840032710781,823438
2019-06-07,121.198356843932,121.874331931316,112.738727441522,1920363
2019-06-14,119.37918859406,123.708411396351,118.862266468413,1246140
2019-06-21,118.67339107635,120.283802313942,116.735032513276,1623537
2019-06-28,123.604032890211,124.011606104663,117.778718166577,1803797
2019-07-05,123.872434763143,125.448053165354,122.281905145768,1168777
2019-07-12,122.679537550112,125.045450355956,122.281905145768,1071975
2019-07-19,122.669596740003,124.20545190178,121.576107628058,1099105
2019-07-26,123.753145041839,124.028306665645,121.94888800713,1024370
2019-08-02,117.662574240767,124.916219824545,114.492204929755,1971926
2019-08-09,120.713306974005,123.62446369984,115.8979347186,1648511
2019-08-16,119.885820644401,121.441096155464,117.592786237066,1163603
2019-08-23,119.895790359216,121.112095566585,118.101241692605,1169929
2019-08-30,121.849854462859,123.068652098932,119.541865483301,1035620
2019-09-06,120.513912677715,122.836856229494,118.210908555565,895810
2019-09-13,118.041423403718,121.201822999916,115.768328426012,1156152
2019-09-20,117.692483385211,118.659545722218,115.519085555649,1496685
2019-09-27,118.31060570371,119.317546899975,117.253815933373,865991
2019-10-04,116.974663918567,119.367395474047,113.435415159418,1012860
2019-10-11,115.977692437116,117.642634811138,114.163204340877,902743
2019-10-18,117.423301085219,117.642634811138,114.052939295028,901342
2019-10-25,117.522998233364,118.749273155548,116.147177588963,581844
2019-11-01,110.79,119.63,109.54,1344494
2019-11-08,109.0,111.76,108.405,1812428
2019-11-15,109.96,110.73,108.02,1283543
2019-11-22,110.12,112.05,109.88,1968047
2019-11-29,112.12,113.5805,110.17,724576
2019-12-06,112.08,113.48,111.14,1392633
2019-12-13,113.97,115.385,111.34,1396154
2019-12-20,114.96,115.14,112.36,1292779
2019-12-27,115.02,115.64,113.8,406731
2020-01-03,114.04,116.48,112.81,1087923
2020-01-10,115.79,116.17,112.74,1373924
2020-01-17,117.32,118.61,115.14,1027378
